25:27.9,0
25:27.9,3
25:27.9,347
25:27.9,347
25:27.9,347
25:27.9,347
25:27.9,348
25:27.9,347
25:27.9,347
25:27.9,347
25:27.9,347
25:27.9,347
25:27.9,347
25:27.9,347
25:27.9,347
25:27.9,347
25:27.9,346
25:27.9,346
25:27.9,346
25:27.9,347
25:27.9,348
25:27.9,348
25:27.9,348
25:27.9,348
25:27.9,347
25:27.9,348
25:27.9,347
25:27.9,347
25:27.9,347
25:27.9,347
25:27.9,347
25:27.9,348
25:27.9,347
25:27.9,347
25:27.9,347
25:27.9,347
25:27.9,347
25:27.9,347
25:27.9,347
25:27.9,347
25:27.9,347
25:27.9,346
25:27.9,346
25:27.9,346
25:27.9,347
25:27.9,348
25:27.9,348
25:27.9,348
25:27.9,348
25:27.9,347
25:27.9,348
25:27.9,347
25:27.9,347
25:27.9,347
25:27.9,347
25:27.9,347
25:27.9,348
25:27.9,347
25:27.9,347
25:27.9,347
25:27.9,347
25:27.9,347
25:27.9,347
25:27.9,347
25:27.9,347
25:27.9,347
25:27.9,346
25:27.9,346
25:27.9,346
25:27.9,341
25:27.9,341
25:27.9,342
25:27.9,342
25:27.9,343
25:27.9,342
25:27.9,342
25:27.9,342
25:27.9,342
25:27.9,342
25:27.9,343
25:27.9,343
25:27.9,342
25:27.9,343
25:27.9,342
25:27.9,342
25:27.9,343
25:28.0,343
25:28.0,342
25:28.0,343
25:28.0,343
25:28.0,343
25:28.0,344
25:28.0,344
25:28.0,344
25:28.0,344
25:28.0,344
25:28.0,345
25:28.0,345
25:28.0,345
25:28.0,345
25:28.0,345
25:28.0,346
25:28.0,346
25:28.0,346
25:28.1,346
25:28.1,346
25:28.1,346
25:28.1,347
25:28.1,347
25:28.1,346
25:28.1,346
25:28.1,346
25:28.1,346
25:28.1,346
25:28.1,346
25:28.1,345
25:28.1,345
25:28.1,345
25:28.1,345
25:28.1,345
25:28.1,344
25:28.1,344
25:28.1,344
25:28.1,344
25:28.1,345
25:28.2,344
25:28.2,344
25:28.2,344
25:28.2,344
25:28.2,344
25:28.2,344
25:28.2,344
25:28.2,344
25:28.2,344
25:28.2,345
25:28.2,344
25:28.2,344
25:28.2,344
25:28.2,345
25:28.2,345
25:28.2,345
25:28.2,345
25:28.2,345
25:28.3,345
25:28.3,346
25:28.3,346
25:28.3,346
25:28.3,345
25:28.3,346
25:28.3,345
25:28.3,345
25:28.3,345
25:28.3,344
25:28.3,345
25:28.3,345
25:28.3,345
25:28.3,344
25:28.3,344
25:28.3,345
25:28.3,344
25:28.3,344
25:28.3,345
25:28.3,345
25:28.3,345
25:28.3,345
25:28.4,346
25:28.4,345
25:28.4,346
25:28.4,346
25:28.4,346
25:28.4,347
25:28.4,346
25:28.4,346
25:28.4,346
25:28.4,346
25:28.4,346
25:28.4,346
25:28.4,345
25:28.4,345
25:28.4,345
25:28.4,345
25:28.4,345
25:28.4,344
25:28.5,345
25:28.5,344
25:28.5,345
25:28.5,345
25:28.5,345
25:28.5,344
25:28.5,345
25:28.5,344
25:28.5,344
25:28.5,345
25:28.5,345
25:28.5,344
25:28.5,345
25:28.5,344
25:28.5,345
25:28.5,345
25:28.5,345
25:28.5,345
25:28.6,346
25:28.6,345
25:28.6,345
25:28.6,345
25:28.6,345
25:28.6,345
25:28.6,345
25:28.6,346
25:28.6,347
25:28.6,348
25:28.6,349
25:28.6,351
25:28.6,352
25:28.6,354
25:28.6,355
25:28.6,358
25:28.6,359
25:28.6,360
25:28.6,362
25:28.6,362
25:28.6,363
25:28.7,364
25:28.7,364
25:28.7,365
25:28.7,364
25:28.7,364
25:28.7,363
25:28.7,363
25:28.7,362
25:28.7,360
25:28.7,359
25:28.7,359
25:28.7,357
25:28.7,355
25:28.7,353
25:28.7,352
25:28.7,350
25:28.7,349
25:28.8,347
25:28.8,346
25:28.8,346
25:28.8,344
25:28.8,344
25:28.8,343
25:28.8,342
25:28.8,341
25:28.8,342
25:28.8,341
25:28.8,341
25:28.8,340
25:28.8,340
25:28.8,340
25:28.8,340
25:28.8,339
25:28.8,339
25:28.8,339
25:28.8,339
25:28.9,340
25:28.9,340
25:28.9,340
25:28.9,341
25:28.9,341
25:28.9,342
25:28.9,343
25:28.9,343
25:28.9,344
25:28.9,345
25:28.9,346
25:28.9,346
25:28.9,347
25:28.9,348
25:28.9,348
25:28.9,349
25:28.9,349
25:28.9,350
25:28.9,350
25:28.9,351
25:28.9,351
25:29.0,351
25:29.0,351
25:29.0,351
25:29.0,351
25:29.0,351
25:29.0,350
25:29.0,350
25:29.0,350
25:29.0,349
25:29.0,349
25:29.0,349
25:29.0,349
25:29.0,348
25:29.0,348
25:29.0,349
25:29.0,349
25:29.0,348
25:29.0,348
25:29.1,348
25:29.1,348
25:29.1,348
25:29.1,347
25:29.1,347
25:29.1,347
25:29.1,347
25:29.1,346
25:29.1,345
25:29.1,346
25:29.1,345
25:29.1,345
25:29.1,346
25:29.1,346
25:29.1,346
25:29.1,346
25:29.1,346
25:29.1,346
25:29.1,346
25:29.2,347
25:29.2,347
25:29.2,347
25:29.2,347
25:29.2,347
25:29.2,347
25:29.2,347
25:29.2,347
25:29.2,348
25:29.2,348
25:29.2,347
25:29.2,347
25:29.2,348
25:29.2,348
25:29.2,348
25:29.2,348
25:29.2,347
25:29.2,348
25:29.2,348
25:29.2,347
25:29.3,348
25:29.3,348
25:29.3,347
25:29.3,348
25:29.3,347
25:29.3,348
25:29.3,347
25:29.3,347
25:29.3,347
25:29.3,346
25:29.3,346
25:29.3,346
25:29.3,346
25:29.3,345
25:29.3,345
25:29.3,345
25:29.3,345
25:29.3,345
25:29.4,344
25:29.4,345
25:29.4,345
25:29.4,346
25:29.4,347
25:29.4,347
25:29.4,349
25:29.4,349
25:29.4,351
25:29.4,353
25:29.4,354
25:29.4,355
25:29.4,356
25:29.4,358
25:29.4,359
25:29.4,360
25:29.4,360
25:29.4,361
25:29.4,362
25:29.4,362
25:29.4,362
25:29.4,361
25:29.5,361
25:29.5,361
25:29.5,360
25:29.5,359
25:29.5,358
25:29.5,357
25:29.5,355
25:29.5,354
25:29.5,353
25:29.5,352
25:29.5,351
25:29.5,351
25:29.5,350
25:29.5,349
25:29.5,348
25:29.5,347
25:29.5,347
25:29.5,346
25:29.6,345
25:29.6,345
25:29.6,345
25:29.6,345
25:29.6,343
25:29.6,343
25:29.6,343
25:29.6,343
25:29.6,342
25:29.6,342
25:29.6,342
25:29.6,342
25:29.6,342
25:29.6,342
25:29.6,342
25:29.6,342
25:29.6,342
25:29.6,342
25:29.7,342
25:29.7,342
25:29.7,343
25:29.7,342
25:29.7,343
25:29.7,343
25:29.7,344
25:29.7,344
25:29.7,345
25:29.7,345
25:29.7,345
25:29.7,345
25:29.7,345
25:29.7,346
25:29.7,346
25:29.7,346
25:29.7,347
25:29.7,347
25:29.7,347
25:29.7,347
25:29.7,347
25:29.8,347
25:29.8,347
25:29.8,347
25:29.8,347
25:29.8,347
25:29.8,346
25:29.8,347
25:29.8,346
25:29.8,346
25:29.8,346
25:29.8,346
25:29.8,346
25:29.8,346
25:29.8,346
25:29.8,346
25:29.8,346
25:29.8,346
25:29.8,346
25:29.8,347
25:29.9,346
25:29.9,346
25:29.9,347
25:29.9,346
25:29.9,346
25:29.9,347
25:29.9,346
25:29.9,347
25:29.9,347
25:29.9,347
25:29.9,347
25:29.9,348
25:29.9,348
25:29.9,348
25:29.9,348
25:29.9,349
25:29.9,348
25:29.9,348
25:29.9,347
25:30.0,347
25:30.0,347
25:30.0,347
25:30.0,347
25:30.0,347
25:30.0,346
25:30.0,347
25:30.0,346
25:30.0,346
25:30.0,346
25:30.0,346
25:30.0,346
25:30.0,346
25:30.0,346
25:30.0,346
25:30.0,346
25:30.0,347
25:30.0,346
25:30.1,346
25:30.1,345
25:30.1,345
25:30.1,345
25:30.1,345
25:30.1,345
25:30.1,344
25:30.1,344
25:30.1,344
25:30.1,344
25:30.1,344
25:30.1,343
25:30.1,343
25:30.1,342
25:30.1,342
25:30.1,342
25:30.1,342
25:30.1,342
25:30.1,341
25:30.1,342
25:30.1,341
25:30.2,342
25:30.2,342
25:30.2,342
25:30.2,342
25:30.2,342
25:30.2,343
25:30.2,343
25:30.2,343
25:30.2,343
25:30.2,344
25:30.2,344
25:30.2,345
25:30.2,345
25:30.2,345
25:30.2,346
25:30.2,347
25:30.2,348
25:30.2,349
25:30.3,350
25:30.3,351
25:30.3,353
25:30.3,354
25:30.3,356
25:30.3,357
25:30.3,359
25:30.3,361
25:30.3,362
25:30.3,363
25:30.3,363
25:30.3,364
25:30.3,365
25:30.3,366
25:30.3,365
25:30.3,365
25:30.3,366
25:30.3,365
25:30.3,364
25:30.4,363
25:30.4,361
25:30.4,360
25:30.4,359
25:30.4,358
25:30.4,357
25:30.4,355
25:30.4,354
25:30.4,352
25:30.4,351
25:30.4,351
25:30.4,350
25:30.4,349
25:30.4,348
25:30.4,348
25:30.4,348
25:30.4,347
25:30.4,347
25:30.4,346
25:30.4,346
25:30.4,346
25:30.5,345
25:30.5,346
25:30.5,346
25:30.5,346
25:30.5,346
25:30.5,346
25:30.5,346
25:30.5,346
25:30.5,346
25:30.5,347
25:30.5,346
25:30.5,346
25:30.5,346
25:30.5,346
25:30.5,346
25:30.5,347
25:30.5,347
25:30.5,347
25:30.6,347
25:30.6,346
25:30.6,346
25:30.6,347
25:30.6,347
25:30.6,347
25:30.6,348
25:30.6,347
25:30.6,347
25:30.6,347
25:30.6,348
25:30.6,347
25:30.6,347
25:30.6,347
25:30.6,347
25:30.6,347
25:30.6,347
25:30.6,346
25:30.6,346
25:30.6,346
25:30.7,346
25:30.7,345
25:30.7,345
25:30.7,345
25:30.7,345
25:30.7,345
25:30.7,344
25:30.7,345
25:30.7,345
25:30.7,345
25:30.7,344
25:30.7,344
25:30.7,344
25:30.7,344
25:30.7,344
25:30.7,344
25:30.7,344
25:30.7,344
25:30.7,344
25:30.8,344
25:30.8,344
25:30.8,344
25:30.8,344
25:30.8,345
25:30.8,345
25:30.8,345
25:30.8,345
25:30.8,345
25:30.8,345
25:30.8,346
25:30.8,346
25:30.8,346
25:30.8,347
25:30.8,347
25:30.8,348
25:30.8,347
25:30.8,348
25:30.9,348
25:30.9,348
25:30.9,349
25:30.9,349
25:30.9,350
25:30.9,350
25:30.9,350
25:30.9,350
25:30.9,350
25:30.9,350
25:30.9,350
25:30.9,350
25:30.9,350
25:30.9,351
25:30.9,350
25:30.9,350
25:30.9,350
25:30.9,350
25:30.9,349
25:30.9,349
25:30.9,349
25:31.0,349
25:31.0,348
25:31.0,348
25:31.0,347
25:31.0,347
25:31.0,346
25:31.0,346
25:31.0,345
25:31.0,345
25:31.0,344
25:31.0,344
25:31.0,344
25:31.0,344
25:31.0,345
25:31.0,344
25:31.0,344
25:31.0,344
25:31.0,344
25:31.1,344
25:31.1,344
25:31.1,344
25:31.1,344
25:31.1,343
25:31.1,343
25:31.1,343
25:31.1,343
25:31.1,343
25:31.1,342
25:31.1,342
25:31.1,342
25:31.1,342
25:31.1,342
25:31.1,342
25:31.1,342
25:31.1,342
25:31.1,341
25:31.2,342
25:31.2,342
25:31.2,342
25:31.2,342
25:31.2,342
25:31.2,342
25:31.2,342
25:31.2,342
25:31.2,343
25:31.2,343
25:31.2,343
25:31.2,343
25:31.2,343
25:31.2,343
25:31.2,344
25:31.2,345
25:31.2,346
25:31.2,348
25:31.2,349
25:31.2,351
25:31.2,353
25:31.3,355
25:31.3,357
25:31.3,359
25:31.3,361
25:31.3,362
25:31.3,364
25:31.3,365
25:31.3,366
25:31.3,367
25:31.3,367
25:31.3,367
25:31.3,367
25:31.3,367
25:31.3,366
25:31.3,365
25:31.3,365
25:31.3,364
25:31.3,362
25:31.4,361
25:31.4,360
25:31.4,359
25:31.4,358
25:31.4,357
25:31.4,356
25:31.4,356
25:31.4,354
25:31.4,354
25:31.4,353
25:31.4,353
25:31.4,352
25:31.4,351
25:31.4,351
25:31.4,350
25:31.4,349
25:31.4,349
25:31.4,348
25:31.4,348
25:31.4,347
25:31.4,347
25:31.5,347
25:31.5,346
25:31.5,346
25:31.5,346
25:31.5,345
25:31.5,345
25:31.5,344
25:31.5,344
25:31.5,344
25:31.5,344
25:31.5,345
25:31.5,345
25:31.5,345
25:31.5,345
25:31.5,346
25:31.5,346
25:31.5,347
25:31.5,347
25:31.6,348
25:31.6,348
25:31.6,349
25:31.6,349
25:31.6,349
25:31.6,349
25:31.6,349
25:31.6,350
25:31.6,350
25:31.6,350
25:31.6,350
25:31.6,350
25:31.6,350
25:31.6,350
25:31.6,350
25:31.6,350
25:31.6,351
25:31.6,350
25:31.7,349
25:31.7,350
25:31.7,349
25:31.7,349
25:31.7,348
25:31.7,348
25:31.7,348
25:31.7,347
25:31.7,347
25:31.7,347
25:31.7,346
25:31.7,346
25:31.7,345
25:31.7,345
25:31.7,345
25:31.7,345
25:31.7,345
25:31.7,345
25:31.7,346
25:31.7,346
25:31.7,346
25:31.8,346
25:31.8,347
25:31.8,347
25:31.8,348
25:31.8,348
25:31.8,348
25:31.8,348
25:31.8,349
25:31.8,349
25:31.8,349
25:31.8,349
25:31.8,349
25:31.8,349
25:31.8,349
25:31.8,349
25:31.8,349
25:31.8,349
25:31.8,348
25:31.8,348
25:31.9,348
25:31.9,348
25:31.9,347
25:31.9,347
25:31.9,346
25:31.9,345
25:31.9,345
25:31.9,345
25:31.9,345
25:31.9,344
25:31.9,343
25:31.9,344
25:31.9,343
25:31.9,343
25:31.9,343
25:31.9,343
25:31.9,343
25:31.9,343
25:32.0,344
25:32.0,344
25:32.0,344
25:32.0,344
25:32.0,345
25:32.0,345
25:32.0,344
25:32.0,344
25:32.0,344
25:32.0,343
25:32.0,342
25:32.0,342
25:32.0,341
25:32.0,340
25:32.0,339
25:32.0,338
25:32.0,338
25:32.0,337
25:32.0,338
25:32.0,337
25:32.0,338
25:32.1,337
25:32.1,338
25:32.1,338
25:32.1,339
25:32.1,339
25:32.1,340
25:32.1,341
25:32.1,342
25:32.1,342
25:32.1,343
25:32.1,344
25:32.1,345
25:32.1,346
25:32.1,347
25:32.1,347
25:32.1,348
25:32.1,348
25:32.1,349
25:32.2,350
25:32.2,350
25:32.2,350
25:32.2,350
25:32.2,351
25:32.2,351
25:32.2,351
25:32.2,351
25:32.2,350
25:32.2,350
25:32.2,350
25:32.2,350
25:32.2,351
25:32.2,351
25:32.2,352
25:32.2,352
25:32.2,354
25:32.2,355
25:32.3,356
25:32.3,357
25:32.3,359
25:32.3,360
25:32.3,362
25:32.3,363
25:32.3,364
25:32.3,365
25:32.3,365
25:32.3,366
25:32.3,366
25:32.3,366
25:32.3,366
25:32.3,366
25:32.3,365
25:32.3,364
25:32.3,363
25:32.3,362
25:32.3,361
25:32.3,360
25:32.3,359
25:32.4,357
25:32.4,357
25:32.4,355
25:32.4,354
25:32.4,353
25:32.4,352
25:32.4,351
25:32.4,349
25:32.4,349
25:32.4,348
25:32.4,348
25:32.4,348
25:32.4,348
25:32.4,348
25:32.4,347
25:32.4,348
25:32.4,347
25:32.4,348
25:32.4,348
25:32.5,348
25:32.5,348
25:32.5,348
25:32.5,348
25:32.5,348
25:32.5,348
25:32.5,349
25:32.5,348
25:32.5,348
25:32.5,348
25:32.5,348
25:32.5,348
25:32.5,348
25:32.5,347
25:32.5,347
25:32.5,347
25:32.5,347
25:32.5,346
25:32.6,347
25:32.6,346
25:32.6,346
25:32.6,346
25:32.6,346
25:32.6,346
25:32.6,346
25:32.6,346
25:32.6,346
25:32.6,346
25:32.6,346
25:32.6,346
25:32.6,347
25:32.6,345
25:32.6,345
25:32.6,345
25:32.6,345
25:32.6,344
25:32.6,344
25:32.6,345
25:32.6,344
25:32.6,344
25:32.7,344
25:32.7,343
25:32.7,343
25:32.7,343
25:32.7,343
25:32.7,343
25:32.7,343
25:32.7,343
25:32.7,343
25:32.7,343
25:32.7,342
25:32.7,343
25:32.7,343
25:32.7,343
25:32.7,344
25:32.7,344
25:32.7,344
25:32.8,344
25:32.8,344
25:32.8,344
25:32.8,345
25:32.8,345
25:32.8,346
25:32.8,346
25:32.8,346
25:32.8,347
25:32.8,347
25:32.8,348
25:32.8,348
25:32.8,348
25:32.8,349
25:32.8,349
25:32.8,349
25:32.8,349
25:32.8,349
25:32.8,349
25:32.8,349
25:32.8,350
25:32.9,350
25:32.9,350
25:32.9,349
25:32.9,349
25:32.9,349
25:32.9,350
25:32.9,349
25:32.9,349
25:32.9,350
25:32.9,349
25:32.9,350
25:32.9,349
25:32.9,350
25:32.9,349
25:32.9,350
25:32.9,350
25:32.9,349
25:32.9,349
25:32.9,350
25:33.0,349
25:33.0,349
25:33.0,349
25:33.0,348
25:33.0,348
25:33.0,348
25:33.0,347
25:33.0,347
25:33.0,347
25:33.0,347
25:33.0,346
25:33.0,347
25:33.0,346
25:33.0,346
25:33.0,346
25:33.0,346
25:33.0,345
25:33.0,345
25:33.1,345
25:33.1,345
25:33.1,346
25:33.1,346
25:33.1,346
25:33.1,347
25:33.1,347
25:33.1,347
25:33.1,348
25:33.1,348
25:33.1,349
25:33.1,350
25:33.1,350
25:33.1,350
25:33.1,351
25:33.1,353
25:33.1,353
25:33.1,354
25:33.2,356
25:33.2,357
25:33.2,358
25:33.2,359
25:33.2,360
25:33.2,361
25:33.2,362
25:33.2,363
25:33.2,362
25:33.2,363
25:33.2,362
25:33.2,363
25:33.2,362
25:33.2,361
25:33.2,362
25:33.2,361
25:33.2,359
25:33.2,359
25:33.2,357
25:33.2,356
25:33.2,354
25:33.2,353
25:33.3,352
25:33.3,350
25:33.3,348
25:33.3,348
25:33.3,347
25:33.3,345
25:33.3,344
25:33.3,344
25:33.3,344
25:33.3,343
25:33.3,343
25:33.3,342
25:33.3,342
25:33.3,342
25:33.3,342
25:33.3,343
25:33.3,342
25:33.3,343
25:33.4,343
25:33.4,344
25:33.4,343
25:33.4,344
25:33.4,344
25:33.4,345
25:33.4,345
25:33.4,346
25:33.4,348
25:33.4,348
25:33.4,348
25:33.4,349
25:33.4,350
25:33.4,351
25:33.4,352
25:33.4,352
25:33.4,353
25:33.4,352
25:33.4,352
25:33.4,352
25:33.4,352
25:33.5,353
25:33.5,352
25:33.5,352
25:33.5,352
25:33.5,351
25:33.5,352
25:33.5,352
25:33.5,351
25:33.5,351
25:33.5,350
25:33.5,350
25:33.5,350
25:33.5,349
25:33.5,349
25:33.5,348
25:33.5,347
25:33.5,347
25:33.5,347
25:33.6,347
25:33.6,347
25:33.6,347
25:33.6,347
25:33.6,347
25:33.6,347
25:33.6,347
25:33.6,347
25:33.6,346
25:33.6,346
25:33.6,346
25:33.6,345
25:33.6,345
25:33.6,345
25:33.6,345
25:33.6,344
25:33.6,345
25:33.6,345
25:33.7,344
25:33.7,344
25:33.7,345
25:33.7,345
25:33.7,345
25:33.7,344
25:33.7,345
25:33.7,345
25:33.7,346
25:33.7,346
25:33.7,346
25:33.7,346
25:33.7,347
25:33.7,348
25:33.7,348
25:33.7,348
25:33.7,348
25:33.7,348
25:33.7,349
25:33.7,349
25:33.7,349
25:33.7,349
25:33.8,348
25:33.8,348
25:33.8,348
25:33.8,348
25:33.8,348
25:33.8,347
25:33.8,347
25:33.8,347
25:33.8,347
25:33.8,346
25:33.8,346
25:33.8,347
25:33.8,347
25:33.8,346
25:33.8,347
25:33.8,347
25:33.8,347
25:33.8,347
25:33.9,347
25:33.9,347
25:33.9,347
25:33.9,346
25:33.9,347
25:33.9,347
25:33.9,348
25:33.9,349
25:33.9,349
25:33.9,350
25:33.9,351
25:33.9,352
25:33.9,353
25:33.9,354
25:33.9,355
25:33.9,356
25:33.9,357
25:33.9,359
25:34.0,359
25:34.0,360
25:34.0,361
25:34.0,361
25:34.0,361
25:34.0,362
25:34.0,361
25:34.0,361
25:34.0,360
25:34.0,359
25:34.0,359
25:34.0,357
25:34.0,357
25:34.0,355
25:34.0,354
25:34.0,353
25:34.0,352
25:34.0,351
25:34.0,350
25:34.0,348
25:34.0,348
25:34.1,348
25:34.1,347
25:34.1,346
25:34.1,346
25:34.1,345
25:34.1,345
25:34.1,345
25:34.1,345
25:34.1,345
25:34.1,345
25:34.1,345
25:34.1,345
25:34.1,345
25:34.1,345
25:34.1,345
25:34.1,345
25:34.1,344
25:34.1,345
25:34.1,344
25:34.2,345
25:34.2,345
25:34.2,344
25:34.2,345
25:34.2,345
25:34.2,345
25:34.2,346
25:34.2,346
25:34.2,346
25:34.2,347
25:34.2,347
25:34.2,348
25:34.2,347
25:34.2,348
25:34.2,348
25:34.2,348
25:34.2,348
25:34.2,349
25:34.3,349
25:34.3,348
25:34.3,348
25:34.3,348
25:34.3,348
25:34.3,348
25:34.3,348
25:34.3,348
25:34.3,348
25:34.3,348
25:34.3,348
25:34.3,348
25:34.3,349
25:34.3,349
25:34.3,348
25:34.3,348
25:34.3,348
25:34.3,348
25:34.3,348
25:34.3,349
25:34.3,349
25:34.4,349
25:34.4,349
25:34.4,348
25:34.4,348
25:34.4,348
25:34.4,348
25:34.4,348
25:34.4,347
25:34.4,347
25:34.4,346
25:34.4,345
25:34.4,346
25:34.4,346
25:34.4,345
25:34.4,345
25:34.4,344
25:34.4,345
25:34.4,344
25:34.5,344
25:34.5,344
25:34.5,343
25:34.5,343
25:34.5,343
25:34.5,344
25:34.5,343
25:34.5,342
25:34.5,342
25:34.5,342
25:34.5,342
25:34.5,342
25:34.5,342
25:34.5,342
25:34.5,343
25:34.5,343
25:34.5,343
25:34.5,344
25:34.6,344
25:34.6,345
25:34.6,344
25:34.6,345
25:34.6,345
25:34.6,345
25:34.6,345
25:34.6,345
25:34.6,345
25:34.6,346
25:34.6,346
25:34.6,345
25:34.6,345
25:34.6,345
25:34.6,345
25:34.6,346
25:34.6,346
25:34.6,346
25:34.6,347
25:34.6,347
25:34.6,348
25:34.7,349
25:34.7,351
25:34.7,353
25:34.7,355
25:34.7,356
25:34.7,358
25:34.7,359
25:34.7,361
25:34.7,362
25:34.7,363
25:34.7,364
25:34.7,365
25:34.7,364
25:34.7,365
25:34.7,365
25:34.7,365
25:34.7,363
25:34.7,362
25:34.8,362
25:34.8,360
25:34.8,359
25:34.8,359
25:34.8,358
25:34.8,357
25:34.8,355
25:34.8,355
25:34.8,354
25:34.8,353
25:34.8,352
25:34.8,352
25:34.8,351
25:34.8,350
25:34.8,349
25:34.8,348
25:34.8,347
25:34.8,347
25:34.9,346
25:34.9,346
25:34.9,346
25:34.9,345
25:34.9,345
25:34.9,345
25:34.9,345
25:34.9,345
25:34.9,345
25:34.9,345
25:34.9,345
25:34.9,344
25:34.9,344
25:34.9,344
25:34.9,344
25:34.9,344
25:34.9,344
25:34.9,344
25:34.9,344
25:34.9,344
25:34.9,344
25:35.0,345
25:35.0,345
25:35.0,346
25:35.0,346
25:35.0,346
25:35.0,347
25:35.0,347
25:35.0,347
25:35.0,348
25:35.0,348
25:35.0,347
25:35.0,348
25:35.0,348
25:35.0,348
25:35.0,348
25:35.0,349
25:35.0,348
25:35.0,348
25:35.0,349
25:35.0,348
25:35.1,348
25:35.1,347
25:35.1,347
25:35.1,347
25:35.1,347
25:35.1,346
25:35.1,346
25:35.1,345
25:35.1,346
25:35.1,344
25:35.1,344
25:35.1,344
25:35.1,343
25:35.1,343
25:35.1,343
25:35.1,343
25:35.1,343
25:35.2,343
25:35.2,343
25:35.2,343
25:35.2,343
25:35.2,344
25:35.2,344
25:35.2,344
25:35.2,344
25:35.2,344
25:35.2,344
25:35.2,344
25:35.2,344
25:35.2,345
25:35.2,345
25:35.2,345
25:35.2,344
25:35.2,345
25:35.2,346
25:35.2,345
25:35.2,345
25:35.2,346
25:35.3,346
25:35.3,346
25:35.3,346
25:35.3,346
25:35.3,346
25:35.3,347
25:35.3,347
25:35.3,348
25:35.3,347
25:35.3,347
25:35.3,347
25:35.3,347
25:35.3,347
25:35.3,346
25:35.3,347
25:35.3,347
25:35.3,347
25:35.3,347
25:35.4,347
25:35.4,347
25:35.4,347
25:35.4,347
25:35.4,347
25:35.4,347
25:35.4,347
25:35.4,346
25:35.4,346
25:35.4,345
25:35.4,345
25:35.4,345
25:35.4,345
25:35.4,345
25:35.4,345
25:35.4,345
25:35.4,344
25:35.4,345
25:35.4,346
25:35.4,345
25:35.4,346
25:35.5,346
25:35.5,346
25:35.5,346
25:35.5,346
25:35.5,346
25:35.5,346
25:35.5,346
25:35.5,346
25:35.5,346
25:35.5,346
25:35.5,346
25:35.5,346
25:35.5,346
25:35.5,346
25:35.5,347
25:35.5,347
25:35.5,347
25:35.5,349
25:35.6,350
25:35.6,351
25:35.6,352
25:35.6,353
25:35.6,355
25:35.6,357
25:35.6,358
25:35.6,359
25:35.6,360
25:35.6,362
25:35.6,363
25:35.6,365
25:35.6,365
25:35.6,365
25:35.6,366
25:35.6,367
25:35.6,366
25:35.6,366
25:35.7,366
25:35.7,365
25:35.7,364
25:35.7,363
25:35.7,363
25:35.7,362
25:35.7,360
25:35.7,359
25:35.7,358
25:35.7,357
25:35.7,356
25:35.7,355
25:35.7,355
25:35.7,353
25:35.7,353
25:35.7,352
25:35.7,353
25:35.7,352
25:35.7,352
25:35.7,351
25:35.8,351
25:35.8,350
25:35.8,350
25:35.8,350
25:35.8,349
25:35.8,347
25:35.8,347
25:35.8,347
25:35.8,345
25:35.8,345
25:35.8,345
25:35.8,344
25:35.8,344
25:35.8,344
25:35.8,344
25:35.8,343
25:35.8,343
25:35.8,344
25:35.8,343
25:35.8,344
25:35.9,344
25:35.9,344
25:35.9,345
25:35.9,345
25:35.9,345
25:35.9,345
25:35.9,347
25:35.9,347
25:35.9,347
25:35.9,347
25:35.9,347
25:35.9,348
25:35.9,348
25:35.9,349
25:35.9,349
25:35.9,350
25:35.9,350
25:35.9,350
25:36.0,350
25:36.0,350
25:36.0,351
25:36.0,350
25:36.0,350
25:36.0,350
25:36.0,350
25:36.0,350
25:36.0,350
25:36.0,349
25:36.0,350
25:36.0,349
25:36.0,349
25:36.0,349
25:36.0,348
25:36.0,347
25:36.0,347
25:36.0,347
25:36.0,347
25:36.0,347
25:36.0,346
25:36.1,346
25:36.1,346
25:36.1,346
25:36.1,345
25:36.1,345
25:36.1,345
25:36.1,345
25:36.1,345
25:36.1,346
25:36.1,345
25:36.1,346
25:36.1,346
25:36.1,347
25:36.1,347
25:36.1,346
25:36.1,347
25:36.1,347
25:36.1,347
25:36.1,347
25:36.2,346
25:36.2,347
25:36.2,348
25:36.2,348
25:36.2,348
25:36.2,347
25:36.2,347
25:36.2,347
25:36.2,347
25:36.2,347
25:36.2,347
25:36.2,347
25:36.2,347
25:36.2,347
25:36.2,348
25:36.2,348
25:36.2,348
25:36.2,349
25:36.3,350
25:36.3,349
25:36.3,349
25:36.3,349
25:36.3,348
25:36.3,349
25:36.3,348
25:36.3,348
25:36.3,348
25:36.3,349
25:36.3,348
25:36.3,347
25:36.3,348
25:36.3,348
25:36.3,347
25:36.3,348
25:36.3,348
25:36.3,347
25:36.4,348
25:36.4,347
25:36.4,347
25:36.4,347
25:36.4,347
25:36.4,347
25:36.4,347
25:36.4,347
25:36.4,347
25:36.4,347
25:36.4,347
25:36.4,347
25:36.4,347
25:36.4,348
25:36.4,348
25:36.4,348
25:36.4,348
25:36.4,348
25:36.4,349
25:36.4,349
25:36.4,349
25:36.4,349
25:36.5,349
25:36.5,349
25:36.5,350
25:36.5,349
25:36.5,349
25:36.5,349
25:36.5,349
25:36.5,348
25:36.5,348
25:36.5,348
25:36.5,346
25:36.5,346
25:36.5,346
25:36.5,345
25:36.5,344
25:36.5,344
25:36.5,344
25:36.5,344
25:36.6,343
25:36.6,342
25:36.6,343
25:36.6,343
25:36.6,343
25:36.6,343
25:36.6,344
25:36.6,343
25:36.6,343
25:36.6,344
25:36.6,345
25:36.6,346
25:36.6,345
25:36.6,347
25:36.6,347
25:36.6,347
25:36.6,349
25:36.6,350
25:36.6,351
25:36.6,352
25:36.6,355
25:36.7,356
25:36.7,357
25:36.7,359
25:36.7,360
25:36.7,362
25:36.7,363
25:36.7,365
25:36.7,365
25:36.7,366
25:36.7,366
25:36.7,366
25:36.7,366
25:36.7,366
25:36.7,365
25:36.7,365
25:36.7,364
25:36.7,364
25:36.7,363
25:36.8,362
25:36.8,360
25:36.8,359
25:36.8,358
25:36.8,357
25:36.8,355
25:36.8,355
25:36.8,353
25:36.8,352
25:36.8,351
25:36.8,350
25:36.8,349
25:36.8,348
25:36.8,347
25:36.8,346
25:36.8,345
25:36.8,344
25:36.8,344
25:36.9,344
25:36.9,344
25:36.9,343
25:36.9,344
25:36.9,344
25:36.9,344
25:36.9,344
25:36.9,344
25:36.9,344
25:36.9,344
25:36.9,345
25:36.9,344
25:36.9,345
25:36.9,345
25:36.9,345
25:36.9,345
25:36.9,346
25:36.9,345
25:36.9,345
25:36.9,346
25:36.9,346
25:36.9,346
25:37.0,346
25:37.0,346
25:37.0,346
25:37.0,347
25:37.0,348
25:37.0,348
25:37.0,349
25:37.0,350
25:37.0,350
25:37.0,350
25:37.0,350
25:37.0,351
25:37.0,351
25:37.0,351
25:37.0,351
25:37.0,350
25:37.0,350
25:37.0,351
25:37.1,350
25:37.1,351
25:37.1,350
25:37.1,350
25:37.1,350
25:37.1,349
25:37.1,349
25:37.1,349
25:37.1,349
25:37.1,350
25:37.1,349
25:37.1,349
25:37.1,348
25:37.1,348
25:37.1,348
25:37.1,348
25:37.1,347
25:37.1,347
25:37.2,347
25:37.2,346
25:37.2,347
25:37.2,346
25:37.2,346
25:37.2,346
25:37.2,346
25:37.2,346
25:37.2,346
25:37.2,346
25:37.2,346
25:37.2,346
25:37.2,347
25:37.2,347
25:37.2,346
25:37.2,347
25:37.2,347
25:37.2,346
25:37.2,346
25:37.2,346
25:37.3,346
25:37.3,346
25:37.3,346
25:37.3,346
25:37.3,346
25:37.3,346
25:37.3,346
25:37.3,345
25:37.3,345
25:37.3,345
25:37.3,345
25:37.3,345
25:37.3,344
25:37.3,345
25:37.3,345
25:37.3,345
25:37.3,344
25:37.3,345
25:37.4,345
25:37.4,345
25:37.4,345
25:37.4,345
25:37.4,345
25:37.4,345
25:37.4,345
25:37.4,346
25:37.4,346
25:37.4,346
25:37.4,346
25:37.4,347
25:37.4,347
25:37.4,347
25:37.4,347
25:37.4,348
25:37.4,348
25:37.4,348
25:37.4,348
25:37.4,348
25:37.4,348
25:37.4,348
25:37.5,348
25:37.5,349
25:37.5,348
25:37.5,348
25:37.5,348
25:37.5,348
25:37.5,348
25:37.5,348
25:37.5,348
25:37.5,348
25:37.5,348
25:37.5,348
25:37.5,349
25:37.5,348
25:37.5,349
25:37.5,349
25:37.5,349
25:37.5,349
25:37.6,349
25:37.6,348
25:37.6,348
25:37.6,349
25:37.6,349
25:37.6,349
25:37.6,348
25:37.6,349
25:37.6,349
25:37.6,349
25:37.6,349
25:37.6,349
25:37.6,349
25:37.6,349
25:37.6,349
25:37.6,349
25:37.6,349
25:37.6,350
25:37.7,350
25:37.7,351
25:37.7,351
25:37.7,353
25:37.7,353
25:37.7,355
25:37.7,356
25:37.7,356
25:37.7,358
25:37.7,360
25:37.7,361
25:37.7,361
25:37.7,361
25:37.7,363
25:37.7,363
25:37.7,364
25:37.7,364
25:37.7,363
25:37.7,362
25:37.8,362
25:37.8,362
25:37.8,361
25:37.8,361
25:37.8,358
25:37.8,358
25:37.8,357
25:37.8,356
25:37.8,355
25:37.8,355
25:37.8,353
25:37.8,353
25:37.8,352
25:37.8,351
25:37.8,351
25:37.8,350
25:37.8,350
25:37.8,350
25:37.8,349
25:37.8,349
25:37.8,349
25:37.8,350
25:37.9,350
25:37.9,351
25:37.9,350
25:37.9,352
25:37.9,351
25:37.9,351
25:37.9,351
25:37.9,352
25:37.9,352
25:37.9,351
25:37.9,351
25:37.9,351
25:37.9,351
25:37.9,351
25:37.9,351
25:37.9,351
25:37.9,351
25:37.9,350
25:38.0,350
25:38.0,350
25:38.0,351
25:38.0,350
25:38.0,350
25:38.0,351
25:38.0,351
25:38.0,351
25:38.0,351
25:38.0,351
25:38.0,351
25:38.0,351
25:38.0,351
25:38.0,350
25:38.0,350
25:38.0,349
25:38.0,348
25:38.0,347
25:38.1,347
25:38.1,346
25:38.1,345
25:38.1,344
25:38.1,344
25:38.1,343
25:38.1,342
25:38.1,342
25:38.1,342
25:38.1,342
25:38.1,342
25:38.1,341
25:38.1,341
25:38.1,341
25:38.1,341
25:38.1,342
25:38.1,341
25:38.1,342
25:38.1,341
25:38.1,341
25:38.1,340
25:38.2,341
25:38.2,340
25:38.2,340
25:38.2,340
25:38.2,340
25:38.2,340
25:38.2,340
25:38.2,340
25:38.2,341
25:38.2,341
25:38.2,341
25:38.2,342
25:38.2,342
25:38.2,344
25:38.2,344
25:38.2,344
25:38.2,345
25:38.2,345
25:38.3,345
25:38.3,346
25:38.3,347
25:38.3,347
25:38.3,348
25:38.3,348
25:38.3,349
25:38.3,349
25:38.3,349
25:38.3,349
25:38.3,350
25:38.3,350
25:38.3,350
25:38.3,350
25:38.3,351
25:38.3,351
25:38.3,352
25:38.3,351
25:38.4,352
25:38.4,352
25:38.4,352
25:38.4,352
25:38.4,352
25:38.4,352
25:38.4,351
25:38.4,352
25:38.4,351
25:38.4,351
25:38.4,350
25:38.4,351
25:38.4,350
25:38.4,349
25:38.4,349
25:38.4,349
25:38.4,348
25:38.4,348
25:38.4,347
25:38.4,348
25:38.4,348
25:38.5,348
25:38.5,349
25:38.5,349
25:38.5,349
25:38.5,349
25:38.5,349
25:38.5,349
25:38.5,349
25:38.5,350
25:38.5,350
25:38.5,349
25:38.5,350
25:38.5,350
25:38.5,350
25:38.5,351
25:38.5,352
25:38.5,352
25:38.5,353
25:38.5,354
25:38.5,355
25:38.6,356
25:38.6,356
25:38.6,356
25:38.6,358
25:38.6,359
25:38.6,359
25:38.6,360
25:38.6,360
25:38.6,360
25:38.6,360
25:38.6,359
25:38.6,359
25:38.6,359
25:38.6,359
25:38.6,358
25:38.6,357
25:38.6,356
25:38.6,355
25:38.7,354
25:38.7,354
25:38.7,353
25:38.7,353
25:38.7,352
25:38.7,351
25:38.7,351
25:38.7,350
25:38.7,350
25:38.7,350
25:38.7,350
25:38.7,350
25:38.7,350
25:38.7,350
25:38.7,350
25:38.7,349
25:38.7,350
25:38.7,350
25:38.7,350
25:38.7,350
25:38.8,351
25:38.8,351
25:38.8,350
25:38.8,350
25:38.8,350
25:38.8,350
25:38.8,349
25:38.8,349
25:38.8,349
25:38.8,349
25:38.8,348
25:38.8,348
25:38.8,348
25:38.8,348
25:38.8,348
25:38.8,349
25:38.8,348
25:38.8,349
25:38.8,348
25:38.9,349
25:38.9,349
25:38.9,351
25:38.9,351
25:38.9,350
25:38.9,351
25:38.9,351
25:38.9,351
25:38.9,351
25:38.9,351
25:38.9,350
25:38.9,351
25:38.9,350
25:38.9,349
25:38.9,350
25:38.9,349
25:38.9,349
25:38.9,350
25:39.0,349
25:39.0,348
25:39.0,349
25:39.0,348
25:39.0,348
25:39.0,348
25:39.0,348
25:39.0,348
25:39.0,348
25:39.0,347
25:39.0,347
25:39.0,347
25:39.0,347
25:39.0,347
25:39.0,347
25:39.0,346
25:39.0,346
25:39.0,346
25:39.0,346
25:39.0,346
25:39.0,346
25:39.0,346
25:39.1,346
25:39.1,347
25:39.1,347
25:39.1,347
25:39.1,347
25:39.1,347
25:39.1,347
25:39.1,348
25:39.1,347
25:39.1,347
25:39.1,347
25:39.1,347
25:39.1,347
25:39.1,347
25:39.1,347
25:39.1,347
25:39.1,347
25:39.1,347
25:39.2,347
25:39.2,347
25:39.2,347
25:39.2,347
25:39.2,347
25:39.2,347
25:39.2,347
25:39.2,347
25:39.2,347
25:39.2,347
25:39.2,347
25:39.2,347
25:39.2,347
25:39.2,347
25:39.2,348
25:39.2,348
25:39.2,347
25:39.3,347
25:39.3,347
25:39.3,347
25:39.3,348
25:39.3,349
25:39.3,349
25:39.3,350
25:39.3,351
25:39.3,351
25:39.3,352
25:39.3,354
25:39.3,354
25:39.3,356
25:39.3,358
25:39.3,358
25:39.3,359
25:39.3,360
25:39.3,361
25:39.3,361
25:39.3,361
25:39.3,362
25:39.4,362
25:39.4,361
25:39.4,361
25:39.4,361
25:39.4,361
25:39.4,360
25:39.4,359
25:39.4,358
25:39.4,357
25:39.4,355
25:39.4,355
25:39.4,355
25:39.4,353
25:39.4,352
25:39.4,352
25:39.4,351
25:39.4,350
25:39.4,350
25:39.5,349
25:39.5,348
25:39.5,347
25:39.5,347
25:39.5,348
25:39.5,347
25:39.5,346
25:39.5,346
25:39.5,345
25:39.5,345
25:39.5,345
25:39.5,344
25:39.5,345
25:39.5,344
25:39.5,344
25:39.5,344
25:39.5,344
25:39.5,344
25:39.5,344
25:39.6,345
25:39.6,344
25:39.6,344
25:39.6,344
25:39.6,345
25:39.6,345
25:39.6,345
25:39.6,345
25:39.6,345
25:39.6,346
25:39.6,346
25:39.6,346
25:39.6,346
25:39.6,347
25:39.6,348
25:39.6,348
25:39.6,348
25:39.6,348
25:39.6,349
25:39.6,349
25:39.6,349
25:39.7,349
25:39.7,349
25:39.7,349
25:39.7,348
25:39.7,349
25:39.7,348
25:39.7,349
25:39.7,348
25:39.7,348
25:39.7,348
25:39.7,347
25:39.7,348
25:39.7,348
25:39.7,348
25:39.7,347
25:39.7,347
25:39.7,348
25:39.7,347
25:39.8,347
25:39.8,347
25:39.8,347
25:39.8,348
25:39.8,347
25:39.8,348
25:39.8,348
25:39.8,347
25:39.8,348
25:39.8,348
25:39.8,348
25:39.8,347
25:39.8,348
25:39.8,348
25:39.8,347
25:39.8,348
25:39.8,348
25:39.8,348
25:39.8,347
25:39.9,348
25:39.9,348
25:39.9,348
25:39.9,349
25:39.9,348
25:39.9,349
25:39.9,349
25:39.9,349
25:39.9,349
25:39.9,349
25:39.9,349
25:39.9,349
25:39.9,349
25:39.9,348
25:39.9,349
25:39.9,349
25:39.9,349
25:39.9,348
25:39.9,348
25:39.9,349
25:40.0,349
25:40.0,348
25:40.0,349
25:40.0,349
25:40.0,349
25:40.0,348
25:40.0,349
25:40.0,348
25:40.0,349
25:40.0,349
25:40.0,349
25:40.0,349
25:40.0,350
25:40.0,349
25:40.0,350
25:40.0,350
25:40.0,349
25:40.0,350
25:40.0,350
25:40.1,350
25:40.1,350
25:40.1,350
25:40.1,350
25:40.1,349
25:40.1,350
25:40.1,349
25:40.1,349
25:40.1,349
25:40.1,349
25:40.1,349
25:40.1,349
25:40.1,350
25:40.1,349
25:40.1,349
25:40.1,348
25:40.1,348
25:40.1,347
25:40.2,347
25:40.2,347
25:40.2,346
25:40.2,347
25:40.2,347
25:40.2,347
25:40.2,346
25:40.2,347
25:40.2,346
25:40.2,346
25:40.2,346
25:40.2,347
25:40.2,346
25:40.2,346
25:40.2,346
25:40.2,346
25:40.2,346
25:40.2,346
25:40.2,346
25:40.2,347
25:40.2,348
25:40.2,350
25:40.3,351
25:40.3,352
25:40.3,355
25:40.3,357
25:40.3,358
25:40.3,360
25:40.3,361
25:40.3,363
25:40.3,364
25:40.3,365
25:40.3,366
25:40.3,367
25:40.3,366
25:40.3,367
25:40.3,366
25:40.3,366
25:40.3,365
25:40.3,364
25:40.4,363
25:40.4,362
25:40.4,361
25:40.4,360
25:40.4,359
25:40.4,358
25:40.4,356
25:40.4,355
25:40.4,354
25:40.4,353
25:40.4,352
25:40.4,352
25:40.4,351
25:40.4,349
25:40.4,350
25:40.4,349
25:40.4,348
25:40.4,347
25:40.5,346
25:40.5,346
25:40.5,346
25:40.5,345
25:40.5,345
25:40.5,344
25:40.5,344
25:40.5,344
25:40.5,343
25:40.5,343
25:40.5,343
25:40.5,343
25:40.5,344
25:40.5,344
25:40.5,344
25:40.5,344
25:40.5,344
25:40.5,345
25:40.5,345
25:40.5,345
25:40.5,346
25:40.6,346
25:40.6,346
25:40.6,347
25:40.6,347
25:40.6,347
25:40.6,348
25:40.6,348
25:40.6,349
25:40.6,349
25:40.6,349
25:40.6,350
25:40.6,349
25:40.6,350
25:40.6,350
25:40.6,351
25:40.6,350
25:40.6,350
25:40.6,350
25:40.7,351
25:40.7,350
25:40.7,350
25:40.7,350
25:40.7,350
25:40.7,350
25:40.7,350
25:40.7,350
25:40.7,350
25:40.7,349
25:40.7,349
25:40.7,350
25:40.7,349
25:40.7,349
25:40.7,349
25:40.7,349
25:40.7,349
25:40.7,349
25:40.8,349
25:40.8,349
25:40.8,349
25:40.8,349
25:40.8,348
25:40.8,348
25:40.8,348
25:40.8,349
25:40.8,348
25:40.8,348
25:40.8,348
25:40.8,348
25:40.8,347
25:40.8,347
25:40.8,347
25:40.8,346
25:40.8,347
25:40.8,346
25:40.8,346
25:40.8,346
25:40.8,345
25:40.8,345
25:40.9,345
25:40.9,345
25:40.9,345
25:40.9,345
25:40.9,345
25:40.9,345
25:40.9,345
25:40.9,345
25:40.9,345
25:40.9,345
25:40.9,345
25:40.9,346
25:40.9,346
25:40.9,345
25:40.9,346
25:40.9,345
25:40.9,346
25:40.9,346
25:41.0,347
25:41.0,346
25:41.0,346
25:41.0,346
25:41.0,346
25:41.0,347
25:41.0,347
25:41.0,347
25:41.0,347
25:41.0,347
25:41.0,347
25:41.0,346
25:41.0,346
25:41.0,346
25:41.0,346
25:41.0,346
25:41.0,346
25:41.0,345
25:41.1,346
25:41.1,345
25:41.1,345
25:41.1,345
25:41.1,346
25:41.1,346
25:41.1,346
25:41.1,346
25:41.1,346
25:41.1,345
25:41.1,346
25:41.1,346
25:41.1,346
25:41.1,345
25:41.1,345
25:41.1,345
25:41.1,345
25:41.1,346
25:41.1,346
25:41.1,346
25:41.1,346
25:41.2,346
25:41.2,347
25:41.2,347
25:41.2,348
25:41.2,347
25:41.2,347
25:41.2,348
25:41.2,348
25:41.2,348
25:41.2,348
25:41.2,349
25:41.2,349
25:41.2,348
25:41.2,348
25:41.2,348
25:41.2,349
25:41.2,349
25:41.2,349
25:41.3,349
25:41.3,349
25:41.3,349
25:41.3,349
25:41.3,350
25:41.3,349
25:41.3,349
25:41.3,350
25:41.3,350
25:41.3,351
25:41.3,352
25:41.3,353
25:41.3,354
25:41.3,356
25:41.3,357
25:41.3,359
25:41.3,359
25:41.3,361
25:41.3,362
25:41.3,363
25:41.3,364
25:41.4,365
25:41.4,366
25:41.4,366
25:41.4,366
25:41.4,366
25:41.4,366
25:41.4,366
25:41.4,365
25:41.4,365
25:41.4,363
25:41.4,362
25:41.4,360
25:41.4,359
25:41.4,357
25:41.4,355
25:41.4,354
25:41.4,352
25:41.4,350
25:41.4,349
25:41.5,348
25:41.5,346
25:41.5,345
25:41.5,344
25:41.5,343
25:41.5,343
25:41.5,342
25:41.5,343
25:41.5,343
25:41.5,342
25:41.5,343
25:41.5,343
25:41.5,342
25:41.5,343
25:41.5,343
25:41.5,343
25:41.5,343
25:41.5,343
25:41.6,344
25:41.6,343
25:41.6,343
25:41.6,343
25:41.6,344
25:41.6,344
25:41.6,344
25:41.6,345
25:41.6,345
25:41.6,345
25:41.6,346
25:41.6,346
25:41.6,346
25:41.6,346
25:41.6,346
25:41.6,347
25:41.6,347
25:41.6,348
25:41.6,349
25:41.6,349
25:41.7,349
25:41.7,349
25:41.7,349
25:41.7,350
25:41.7,350
25:41.7,349
25:41.7,350
25:41.7,350
25:41.7,350
25:41.7,351
25:41.7,350
25:41.7,352
25:41.7,351
25:41.7,352
25:41.7,352
25:41.7,351
25:41.7,352
25:41.7,352
25:41.7,351
25:41.8,351
25:41.8,351
25:41.8,351
25:41.8,350
25:41.8,350
25:41.8,350
25:41.8,350
25:41.8,350
25:41.8,349
25:41.8,350
25:41.8,350
25:41.8,349
25:41.8,349
25:41.8,348
25:41.8,348
25:41.8,347
25:41.8,347
25:41.8,348
25:41.9,347
25:41.9,347
25:41.9,347
25:41.9,346
25:41.9,346
25:41.9,346
25:41.9,347
25:41.9,346
25:41.9,346
25:41.9,346
25:41.9,345
25:41.9,345
25:41.9,345
25:41.9,345
25:41.9,345
25:41.9,345
25:41.9,345
25:41.9,345
25:41.9,345
25:42.0,346
25:42.0,346
25:42.0,346
25:42.0,347
25:42.0,348
25:42.0,347
25:42.0,348
25:42.0,348
25:42.0,348
25:42.0,349
25:42.0,349
25:42.0,349
25:42.0,349
25:42.0,349
25:42.0,349
25:42.0,349
25:42.0,349
25:42.0,349
25:42.0,349
25:42.0,349
25:42.0,349
25:42.1,349
25:42.1,348
25:42.1,348
25:42.1,348
25:42.1,348
25:42.1,348
25:42.1,348
25:42.1,348
25:42.1,347
25:42.1,348
25:42.1,347
25:42.1,348
25:42.1,347
25:42.1,347
25:42.1,348
25:42.1,347
25:42.1,347
25:42.1,347
25:42.2,347
25:42.2,347
25:42.2,348
25:42.2,347
25:42.2,348
25:42.2,349
25:42.2,349
25:42.2,348
25:42.2,348
25:42.2,349
25:42.2,349
25:42.2,349
25:42.2,350
25:42.2,349
25:42.2,349
25:42.2,349
25:42.2,350
25:42.2,350
25:42.2,350
25:42.3,350
25:42.3,350
25:42.3,350
25:42.3,350
25:42.3,350
25:42.3,349
25:42.3,350
25:42.3,350
25:42.3,349
25:42.3,349
25:42.3,350
25:42.3,350
25:42.3,351
25:42.3,351
25:42.3,352
25:42.3,354
25:42.3,355
25:42.3,356
25:42.3,357
25:42.3,358
25:42.3,360
25:42.4,360
25:42.4,362
25:42.4,363
25:42.4,363
25:42.4,363
25:42.4,363
25:42.4,363
25:42.4,363
25:42.4,363
25:42.4,363
25:42.4,361
25:42.4,361
25:42.4,361
25:42.4,359
25:42.4,359
25:42.4,357
25:42.4,356
25:42.4,355
25:42.5,355
25:42.5,354
25:42.5,353
25:42.5,351
25:42.5,350
25:42.5,349
25:42.5,349
25:42.5,348
25:42.5,347
25:42.5,347
25:42.5,347
25:42.5,346
25:42.5,347
25:42.5,346
25:42.5,346
25:42.5,346
25:42.5,347
25:42.5,346
25:42.5,346
25:42.5,346
25:42.5,346
25:42.6,346
25:42.6,346
25:42.6,345
25:42.6,346
25:42.6,345
25:42.6,345
25:42.6,345
25:42.6,345
25:42.6,346
25:42.6,345
25:42.6,346
25:42.6,346
25:42.6,346
25:42.6,347
25:42.6,346
25:42.6,346
25:42.6,347
25:42.6,347
25:42.7,347
25:42.7,347
25:42.7,348
25:42.7,348
25:42.7,349
25:42.7,348
25:42.7,349
25:42.7,349
25:42.7,349
25:42.7,349
25:42.7,349
25:42.7,349
25:42.7,349
25:42.7,350
25:42.7,349
25:42.7,349
25:42.7,349
25:42.7,348
25:42.8,348
25:42.8,348
25:42.8,347
25:42.8,347
25:42.8,348
25:42.8,346
25:42.8,346
25:42.8,346
25:42.8,346
25:42.8,346
25:42.8,346
25:42.8,346
25:42.8,347
25:42.8,347
25:42.8,348
25:42.8,348
25:42.8,348
25:42.8,347
25:42.8,348
25:42.9,348
25:42.9,348
25:42.9,347
25:42.9,348
25:42.9,348
25:42.9,348
25:42.9,348
25:42.9,348
25:42.9,347
25:42.9,347
25:42.9,347
25:42.9,347
25:42.9,348
25:42.9,347
25:42.9,347
25:42.9,347
25:42.9,347
25:42.9,348
25:42.9,347
25:42.9,348
25:42.9,348
25:42.9,349
25:43.0,349
25:43.0,349
25:43.0,349
25:43.0,349
25:43.0,349
25:43.0,349
25:43.0,350
25:43.0,350
25:43.0,349
25:43.0,349
25:43.0,350
25:43.0,349
25:43.0,349
25:43.0,349
25:43.0,350
25:43.0,349
25:43.0,349
25:43.0,349
25:43.1,349
25:43.1,349
25:43.1,348
25:43.1,348
25:43.1,349
25:43.1,348
25:43.1,349
25:43.1,349
25:43.1,349
25:43.1,349
25:43.1,349
25:43.1,349
25:43.1,349
25:43.1,349
25:43.1,350
25:43.1,349
25:43.1,349
25:43.1,349
25:43.2,349
25:43.2,348
25:43.2,348
25:43.2,347
25:43.2,346
25:43.2,346
25:43.2,346
25:43.2,345
25:43.2,344
25:43.2,345
25:43.2,345
25:43.2,344
25:43.2,345
25:43.2,344
25:43.2,344
25:43.2,345
25:43.2,345
25:43.2,346
25:43.2,348
25:43.2,349
25:43.2,351
25:43.3,353
25:43.3,354
25:43.3,356
25:43.3,357
25:43.3,359
25:43.3,360
25:43.3,361
25:43.3,362
25:43.3,363
25:43.3,364
25:43.3,364
25:43.3,365
25:43.3,365
25:43.3,365
25:43.3,365
25:43.3,364
25:43.3,363
25:43.3,362
25:43.4,361
25:43.4,360
25:43.4,359
25:43.4,358
25:43.4,356
25:43.4,355
25:43.4,354
25:43.4,353
25:43.4,352
25:43.4,352
25:43.4,350
25:43.4,350
25:43.4,349
25:43.4,348
25:43.4,347
25:43.4,346
25:43.4,346
25:43.4,346
25:43.4,345
25:43.4,345
25:43.4,345
25:43.5,345
25:43.5,344
25:43.5,345
25:43.5,344
25:43.5,344
25:43.5,344
25:43.5,344
25:43.5,345
25:43.5,345
25:43.5,344
25:43.5,345
25:43.5,345
25:43.5,345
25:43.5,346
25:43.5,346
25:43.5,346
25:43.5,346
25:43.5,346
25:43.6,346
25:43.6,346
25:43.6,346
25:43.6,346
25:43.6,346
25:43.6,346
25:43.6,345
25:43.6,345
25:43.6,346
25:43.6,346
25:43.6,346
25:43.6,347
25:43.6,347
25:43.6,346
25:43.6,347
25:43.6,348
25:43.6,348
25:43.6,348
25:43.6,349
25:43.7,349
25:43.7,349
25:43.7,349
25:43.7,349
25:43.7,349
25:43.7,350
25:43.7,350
25:43.7,349
25:43.7,350
25:43.7,350
25:43.7,349
25:43.7,349
25:43.7,349
25:43.7,348
25:43.7,349
25:43.7,349
25:43.7,349
25:43.7,348
25:43.7,349
25:43.8,349
25:43.8,348
25:43.8,348
25:43.8,348
25:43.8,348
25:43.8,349
25:43.8,348
25:43.8,349
25:43.8,348
25:43.8,348
25:43.8,348
25:43.8,348
25:43.8,348
25:43.8,349
25:43.8,349
25:43.8,348
25:43.8,349
25:43.8,349
25:43.8,349
25:43.8,349
25:43.8,349
25:43.9,349
25:43.9,349
25:43.9,349
25:43.9,349
25:43.9,348
25:43.9,349
25:43.9,348
25:43.9,348
25:43.9,347
25:43.9,347
25:43.9,347
25:43.9,347
25:43.9,347
25:43.9,347
25:43.9,347
25:43.9,347
25:43.9,347
25:43.9,347
25:44.0,347
25:44.0,348
25:44.0,348
25:44.0,350
25:44.0,350
25:44.0,350
25:44.0,352
25:44.0,352
25:44.0,353
25:44.0,354
25:44.0,355
25:44.0,357
25:44.0,357
25:44.0,358
25:44.0,359
25:44.0,360
25:44.0,360
25:44.0,361
25:44.0,362
25:44.1,362
25:44.1,362
25:44.1,362
25:44.1,361
25:44.1,361
25:44.1,361
25:44.1,360
25:44.1,359
25:44.1,359
25:44.1,358
25:44.1,357
25:44.1,356
25:44.1,355
25:44.1,355
25:44.1,354
25:44.1,353
25:44.1,353
25:44.1,352
25:44.2,351
25:44.2,349
25:44.2,349
25:44.2,349
25:44.2,349
25:44.2,349
25:44.2,348
25:44.2,348
25:44.2,347
25:44.2,347
25:44.2,347
25:44.2,347
25:44.2,346
25:44.2,346
25:44.2,346
25:44.2,345
25:44.2,345
25:44.2,345
25:44.2,345
25:44.2,345
25:44.2,345
25:44.3,345
25:44.3,345
25:44.3,345
25:44.3,346
25:44.3,345
25:44.3,346
25:44.3,346
25:44.3,347
25:44.3,348
25:44.3,348
25:44.3,348
25:44.3,348
25:44.3,349
25:44.3,348
25:44.3,348
25:44.3,349
25:44.3,349
25:44.3,349
25:44.4,349
25:44.4,349
25:44.4,349
25:44.4,349
25:44.4,349
25:44.4,349
25:44.4,349
25:44.4,349
25:44.4,348
25:44.4,348
25:44.4,348
25:44.4,347
25:44.4,348
25:44.4,347
25:44.4,347
25:44.4,347
25:44.4,347
25:44.4,346
25:44.4,346
25:44.4,346
25:44.4,346
25:44.5,347
25:44.5,346
25:44.5,346
25:44.5,346
25:44.5,346
25:44.5,346
25:44.5,347
25:44.5,347
25:44.5,347
25:44.5,348
25:44.5,348
25:44.5,348
25:44.5,348
25:44.5,349
25:44.5,349
25:44.5,349
25:44.5,350
25:44.5,349
25:44.5,349
25:44.6,349
25:44.6,349
25:44.6,349
25:44.6,349
25:44.6,349
25:44.6,349
25:44.6,348
25:44.6,349
25:44.6,349
25:44.6,348
25:44.6,348
25:44.6,349
25:44.6,349
25:44.6,349
25:44.6,349
25:44.6,349
25:44.6,349
25:44.7,349
25:44.7,349
25:44.7,349
25:44.7,349
25:44.7,349
25:44.7,349
25:44.7,349
25:44.7,349
25:44.7,348
25:44.7,348
25:44.7,349
25:44.7,349
25:44.7,348
25:44.7,348
25:44.7,348
25:44.7,348
25:44.7,349
25:44.7,350
25:44.7,350
25:44.7,352
25:44.7,353
25:44.8,354
25:44.8,356
25:44.8,358
25:44.8,359
25:44.8,361
25:44.8,362
25:44.8,364
25:44.8,365
25:44.8,365
25:44.8,366
25:44.8,366
25:44.8,367
25:44.8,367
25:44.8,366
25:44.8,367
25:44.8,366
25:44.8,364
25:44.8,363
25:44.9,362
25:44.9,361
25:44.9,359
25:44.9,358
25:44.9,356
25:44.9,355
25:44.9,353
25:44.9,352
25:44.9,351
25:44.9,350
25:44.9,349
25:44.9,348
25:44.9,348
25:44.9,347
25:44.9,347
25:44.9,346
25:44.9,346
25:44.9,346
25:44.9,347
25:44.9,346
25:44.9,346
25:44.9,346
25:45.0,346
25:45.0,346
25:45.0,346
25:45.0,346
25:45.0,346
25:45.0,346
25:45.0,347
25:45.0,347
25:45.0,347
25:45.0,348
25:45.0,350
25:45.0,350
25:45.0,349
25:45.0,351
25:45.0,351
25:45.0,352
25:45.0,352
25:45.0,352
25:45.1,352
25:45.1,353
25:45.1,353
25:45.1,353
25:45.1,352
25:45.1,352
25:45.1,352
25:45.1,351
25:45.1,351
25:45.1,351
25:45.1,350
25:45.1,349
25:45.1,349
25:45.1,349
25:45.1,348
25:45.1,347
25:45.1,347
25:45.1,346
25:45.2,346
25:45.2,346
25:45.2,345
25:45.2,345
25:45.2,344
25:45.2,344
25:45.2,344
25:45.2,344
25:45.2,344
25:45.2,344
25:45.2,344
25:45.2,345
25:45.2,345
25:45.2,345
25:45.2,345
25:45.2,346
25:45.2,346
25:45.2,346
25:45.2,346
25:45.2,347
25:45.2,348
25:45.3,348
25:45.3,348
25:45.3,348
25:45.3,348
25:45.3,348
25:45.3,348
25:45.3,348
25:45.3,347
25:45.3,348
25:45.3,347
25:45.3,348
25:45.3,349
25:45.3,349
25:45.3,349
25:45.3,349
25:45.3,349
25:45.3,349
25:45.3,349
25:45.4,349
25:45.4,349
25:45.4,349
25:45.4,349
25:45.4,349
25:45.4,349
25:45.4,349
25:45.4,349
25:45.4,348
25:45.4,349
25:45.4,348
25:45.4,348
25:45.4,348
25:45.4,348
25:45.4,348
25:45.4,347
25:45.4,347
25:45.4,347
25:45.5,347
25:45.5,347
25:45.5,347
25:45.5,347
25:45.5,347
25:45.5,347
25:45.5,348
25:45.5,348
25:45.5,348
25:45.5,349
25:45.5,348
25:45.5,349
25:45.5,349
25:45.5,349
25:45.5,349
25:45.5,349
25:45.5,349
25:45.5,349
25:45.5,349
25:45.5,349
25:45.5,349
25:45.6,349
25:45.6,349
25:45.6,349
25:45.6,349
25:45.6,349
25:45.6,349
25:45.6,349
25:45.6,348
25:45.6,348
25:45.6,348
25:45.6,347
25:45.6,348
25:45.6,348
25:45.6,347
25:45.6,347
25:45.6,348
25:45.6,347
25:45.6,347
25:45.7,348
25:45.7,348
25:45.7,348
25:45.7,348
25:45.7,348
25:45.7,348
25:45.7,348
25:45.7,348
25:45.7,348
25:45.7,348
25:45.7,348
25:45.7,348
25:45.7,348
25:45.7,348
25:45.7,348
25:45.7,348
25:45.7,347
25:45.7,347
25:45.7,348
25:45.7,348
25:45.7,348
25:45.8,348
25:45.8,347
25:45.8,347
25:45.8,349
25:45.8,346
25:45.8,347
25:45.8,347
25:45.8,347
25:45.8,348
25:45.8,347
25:45.8,348
25:45.8,347
25:45.8,348
25:45.8,348
25:45.8,348
25:45.8,348
25:45.8,349
25:45.8,349
25:45.9,350
25:45.9,351
25:45.9,351
25:45.9,353
25:45.9,354
25:45.9,355
25:45.9,357
25:45.9,359
25:45.9,360
25:45.9,362
25:45.9,364
25:45.9,365
25:45.9,366
25:45.9,366
25:45.9,367
25:45.9,368
25:45.9,367
25:45.9,367
25:46.0,367
25:46.0,366
25:46.0,366
25:46.0,365
25:46.0,363
25:46.0,362
25:46.0,362
25:46.0,361
25:46.0,359
25:46.0,358
25:46.0,357
25:46.0,355
25:46.0,355
25:46.0,354
25:46.0,353
25:46.0,352
25:46.0,351
25:46.0,352
25:46.0,351
25:46.0,350
25:46.0,350
25:46.0,350
25:46.1,350
25:46.1,349
25:46.1,349
25:46.1,348
25:46.1,348
25:46.1,348
25:46.1,347
25:46.1,347
25:46.1,346
25:46.1,346
25:46.1,345
25:46.1,345
25:46.1,344
25:46.1,344
25:46.1,344
25:46.1,344
25:46.1,343
25:46.1,344
25:46.1,344
25:46.2,344
25:46.2,345
25:46.2,345
25:46.2,345
25:46.2,346
25:46.2,346
25:46.2,347
25:46.2,348
25:46.2,348
25:46.2,348
25:46.2,350
25:46.2,350
25:46.2,350
25:46.2,350
25:46.2,351
25:46.2,351
25:46.2,351
25:46.2,351
25:46.3,351
25:46.3,351
25:46.3,351
25:46.3,350
25:46.3,351
25:46.3,350
25:46.3,350
25:46.3,350
25:46.3,350
25:46.3,349
25:46.3,349
25:46.3,349
25:46.3,350
25:46.3,349
25:46.3,350
25:46.3,350
25:46.3,350
25:46.3,350
25:46.3,350
25:46.3,351
25:46.4,351
25:46.4,351
25:46.4,352
25:46.4,352
25:46.4,352
25:46.4,353
25:46.4,354
25:46.4,353
25:46.4,353
25:46.4,354
25:46.4,354
25:46.4,354
25:46.4,354
25:46.4,354
25:46.4,355
25:46.4,354
25:46.4,354
25:46.4,354
25:46.5,354
25:46.5,354
25:46.5,354
25:46.5,353
25:46.5,352
25:46.5,351
25:46.5,350
25:46.5,350
25:46.5,350
25:46.5,348
25:46.5,347
25:46.5,347
25:46.5,346
25:46.5,345
25:46.5,345
25:46.5,344
25:46.5,343
25:46.5,343
25:46.6,343
25:46.6,343
25:46.6,342
25:46.6,341
25:46.6,341
25:46.6,341
25:46.6,341
25:46.6,341
25:46.6,340
25:46.6,340
25:46.6,340
25:46.6,340
25:46.6,339
25:46.6,340
25:46.6,340
25:46.6,340
25:46.6,341
25:46.6,341
25:46.6,342
25:46.6,342
25:46.6,343
25:46.6,343
25:46.7,343
25:46.7,344
25:46.7,344
25:46.7,346
25:46.7,346
25:46.7,346
25:46.7,346
25:46.7,347
25:46.7,347
25:46.7,348
25:46.7,347
25:46.7,347
25:46.7,347
25:46.7,347
25:46.7,348
25:46.7,347
25:46.7,347
25:46.7,347
25:46.8,347
25:46.8,348
25:46.8,348
25:46.8,348
25:46.8,348
25:46.8,348
25:46.8,349
25:46.8,349
25:46.8,350
25:46.8,349
25:46.8,349
25:46.8,350
25:46.8,350
25:46.8,349
25:46.8,349
25:46.8,350
25:46.8,349
25:46.8,350
25:46.8,350
25:46.9,350
25:46.9,349
25:46.9,349
25:46.9,349
25:46.9,350
25:46.9,350
25:46.9,350
25:46.9,350
25:46.9,350
25:46.9,350
25:46.9,350
25:46.9,349
25:46.9,349
25:46.9,349
25:46.9,349
25:46.9,349
25:46.9,349
25:46.9,349
25:46.9,350
25:46.9,350
25:46.9,351
25:47.0,352
25:47.0,352
25:47.0,354
25:47.0,355
25:47.0,356
25:47.0,358
25:47.0,359
25:47.0,360
25:47.0,361
25:47.0,362
25:47.0,363
25:47.0,364
25:47.0,364
25:47.0,365
25:47.0,364
25:47.0,364
25:47.0,364
25:47.1,363
25:47.1,363
25:47.1,361
25:47.1,361
25:47.1,360
25:47.1,358
25:47.1,357
25:47.1,356
25:47.1,354
25:47.1,353
25:47.1,353
25:47.1,352
25:47.1,350
25:47.1,350
25:47.1,349
25:47.1,348
25:47.1,348
25:47.1,348
25:47.1,347
25:47.1,347
25:47.1,346
25:47.1,346
25:47.2,346
25:47.2,345
25:47.2,345
25:47.2,345
25:47.2,345
25:47.2,345
25:47.2,345
25:47.2,345
25:47.2,345
25:47.2,345
25:47.2,344
25:47.2,344
25:47.2,345
25:47.2,345
25:47.2,345
25:47.2,346
25:47.2,346
25:47.2,346
25:47.3,346
25:47.3,346
25:47.3,348
25:47.3,348
25:47.3,349
25:47.3,349
25:47.3,349
25:47.3,350
25:47.3,350
25:47.3,350
25:47.3,351
25:47.3,351
25:47.3,351
25:47.3,351
25:47.3,351
25:47.3,351
25:47.3,350
25:47.3,351
25:47.3,351
25:47.4,350
25:47.4,350
25:47.4,350
25:47.4,350
25:47.4,350
25:47.4,349
25:47.4,348
25:47.4,348
25:47.4,348
25:47.4,347
25:47.4,347
25:47.4,347
25:47.4,346
25:47.4,346
25:47.4,346
25:47.4,346
25:47.4,346
25:47.4,346
25:47.5,346
25:47.5,346
25:47.5,346
25:47.5,346
25:47.5,346
25:47.5,345
25:47.5,346
25:47.5,346
25:47.5,345
25:47.5,346
25:47.5,346
25:47.5,346
25:47.5,346
25:47.5,346
25:47.5,347
25:47.5,346
25:47.5,347
25:47.5,347
25:47.5,347
25:47.5,347
25:47.6,346
25:47.6,346
25:47.6,346
25:47.6,346
25:47.6,346
25:47.6,346
25:47.6,345
25:47.6,345
25:47.6,345
25:47.6,345
25:47.6,345
25:47.6,346
25:47.6,345
25:47.6,346
25:47.6,346
25:47.6,346
25:47.6,347
25:47.6,347
25:47.7,347
25:47.7,348
25:47.7,348
25:47.7,348
25:47.7,348
25:47.7,348
25:47.7,348
25:47.7,348
25:47.7,348
25:47.7,348
25:47.7,348
25:47.7,349
25:47.7,349
25:47.7,349
25:47.7,349
25:47.7,349
25:47.7,349
25:47.7,349
25:47.7,349
25:47.7,349
25:47.8,350
25:47.8,348
25:47.8,349
25:47.8,349
25:47.8,348
25:47.8,349
25:47.8,349
25:47.8,348
25:47.8,348
25:47.8,348
25:47.8,348
25:47.8,348
25:47.8,347
25:47.8,347
25:47.8,347
25:47.8,347
25:47.8,348
25:47.8,347
25:47.8,348
25:47.8,348
25:47.9,347
25:47.9,349
25:47.9,349
25:47.9,349
25:47.9,349
25:47.9,350
25:47.9,350
25:47.9,349
25:47.9,350
25:47.9,350
25:47.9,350
25:47.9,350
25:47.9,349
25:47.9,348
25:47.9,349
25:47.9,349
25:47.9,348
25:47.9,349
25:48.0,348
25:48.0,348
25:48.0,348
25:48.0,348
25:48.0,348
25:48.0,348
25:48.0,348
25:48.0,349
25:48.0,350
25:48.0,351
25:48.0,351
25:48.0,352
25:48.0,354
25:48.0,355
25:48.0,357
25:48.0,358
25:48.0,359
25:48.0,360
25:48.0,362
25:48.1,362
25:48.1,364
25:48.1,365
25:48.1,365
25:48.1,367
25:48.1,366
25:48.1,366
25:48.1,366
25:48.1,365
25:48.1,365
25:48.1,364
25:48.1,363
25:48.1,363
25:48.1,361
25:48.1,360
25:48.1,358
25:48.1,357
25:48.1,356
25:48.1,355
25:48.1,354
25:48.2,353
25:48.2,352
25:48.2,352
25:48.2,350
25:48.2,349
25:48.2,349
25:48.2,349
25:48.2,348
25:48.2,348
25:48.2,348
25:48.2,347
25:48.2,347
25:48.2,347
25:48.2,346
25:48.2,347
25:48.2,346
25:48.2,346
25:48.2,345
25:48.2,346
25:48.3,346
25:48.3,345
25:48.3,345
25:48.3,344
25:48.3,345
25:48.3,345
25:48.3,345
25:48.3,345
25:48.3,345
25:48.3,346
25:48.3,346
25:48.3,346
25:48.3,347
25:48.3,346
25:48.3,347
25:48.3,348
25:48.3,349
25:48.3,349
25:48.4,350
25:48.4,350
25:48.4,350
25:48.4,350
25:48.4,350
25:48.4,351
25:48.4,350
25:48.4,350
25:48.4,350
25:48.4,350
25:48.4,350
25:48.4,348
25:48.4,348
25:48.4,348
25:48.4,349
25:48.4,348
25:48.4,348
25:48.4,348
25:48.4,348
25:48.4,347
25:48.4,347
25:48.5,347
25:48.5,348
25:48.5,347
25:48.5,347
25:48.5,347
25:48.5,347
25:48.5,347
25:48.5,346
25:48.5,346
25:48.5,346
25:48.5,346
25:48.5,346
25:48.5,346
25:48.5,346
25:48.5,346
25:48.5,346
25:48.5,346
25:48.5,346
25:48.5,346
25:48.5,346
25:48.6,346
25:48.6,346
25:48.6,346
25:48.6,346
25:48.6,346
25:48.6,346
25:48.6,347
25:48.6,347
25:48.6,347
25:48.6,347
25:48.6,348
25:48.6,348
25:48.6,347
25:48.6,348
25:48.6,348
25:48.6,348
25:48.6,348
25:48.6,347
25:48.6,347
25:48.7,347
25:48.7,347
25:48.7,347
25:48.7,347
25:48.7,347
25:48.7,347
25:48.7,347
25:48.7,347
25:48.7,348
25:48.7,347
25:48.7,347
25:48.7,347
25:48.7,347
25:48.7,347
25:48.7,347
25:48.7,348
25:48.7,346
25:48.7,347
25:48.8,347
25:48.8,346
25:48.8,346
25:48.8,346
25:48.8,345
25:48.8,345
25:48.8,346
25:48.8,345
25:48.8,345
25:48.8,346
25:48.8,345
25:48.8,345
25:48.8,346
25:48.8,346
25:48.8,346
25:48.8,347
25:48.8,346
25:48.8,347
25:48.8,347
25:48.8,347
25:48.8,347
25:48.9,348
25:48.9,349
25:48.9,349
25:48.9,350
25:48.9,350
25:48.9,351
25:48.9,351
25:48.9,353
25:48.9,355
25:48.9,354
25:48.9,356
25:48.9,357
25:48.9,359
25:48.9,360
25:48.9,361
25:48.9,362
25:48.9,363
25:48.9,363
25:49.0,364
25:49.0,364
25:49.0,364
25:49.0,364
25:49.0,363
25:49.0,363
25:49.0,362
25:49.0,361
25:49.0,361
25:49.0,359
25:49.0,359
25:49.0,357
25:49.0,357
25:49.0,355
25:49.0,354
25:49.0,353
25:49.0,352
25:49.0,351
25:49.0,351
25:49.1,350
25:49.1,349
25:49.1,349
25:49.1,349
25:49.1,348
25:49.1,347
25:49.1,347
25:49.1,347
25:49.1,347
25:49.1,347
25:49.1,346
25:49.1,347
25:49.1,347
25:49.1,346
25:49.1,346
25:49.1,346
25:49.1,345
25:49.1,345
25:49.1,345
25:49.1,345
25:49.2,345
25:49.2,345
25:49.2,346
25:49.2,346
25:49.2,347
25:49.2,347
25:49.2,348
25:49.2,348
25:49.2,349
25:49.2,349
25:49.2,349
25:49.2,350
25:49.2,351
25:49.2,351
25:49.2,351
25:49.2,351
25:49.2,351
25:49.2,351
25:49.3,351
25:49.3,351
25:49.3,350
25:49.3,350
25:49.3,350
25:49.3,350
25:49.3,350
25:49.3,349
25:49.3,348
25:49.3,348
25:49.3,348
25:49.3,347
25:49.3,347
25:49.3,347
25:49.3,347
25:49.3,347
25:49.3,347
25:49.3,347
25:49.3,346
25:49.3,346
25:49.3,347
25:49.4,347
25:49.4,347
25:49.4,347
25:49.4,347
25:49.4,347
25:49.4,347
25:49.4,347
25:49.4,347
25:49.4,347
25:49.4,347
25:49.4,347
25:49.4,347
25:49.4,347
25:49.4,347
25:49.4,347
25:49.4,348
25:49.4,348
25:49.4,347
25:49.4,348
25:49.5,348
25:49.5,347
25:49.5,348
25:49.5,347
25:49.5,347
25:49.5,348
25:49.5,347
25:49.5,347
25:49.5,346
25:49.5,346
25:49.5,347
25:49.5,346
25:49.5,347
25:49.5,346
25:49.5,346
25:49.5,346
25:49.5,346
25:49.5,346
25:49.6,346
25:49.6,346
25:49.6,346
25:49.6,347
25:49.6,347
25:49.6,347
25:49.6,347
25:49.6,348
25:49.6,348
25:49.6,349
25:49.6,349
25:49.6,349
25:49.6,349
25:49.6,349
25:49.6,350
25:49.6,350
25:49.6,350
25:49.6,350
25:49.6,350
25:49.6,349
25:49.6,349
25:49.7,349
25:49.7,348
25:49.7,348
25:49.7,347
25:49.7,347
25:49.7,347
25:49.7,347
25:49.7,345
25:49.7,346
25:49.7,345
25:49.7,345
25:49.7,345
25:49.7,345
25:49.7,344
25:49.7,345
25:49.7,345
25:49.7,344
25:49.7,344
25:49.8,345
25:49.8,345
25:49.8,346
25:49.8,345
25:49.8,345
25:49.8,345
25:49.8,346
25:49.8,346
25:49.8,346
25:49.8,347
25:49.8,348
25:49.8,349
25:49.8,351
25:49.8,352
25:49.8,353
25:49.8,355
25:49.8,357
25:49.8,359
25:49.8,360
25:49.9,362
25:49.9,363
25:49.9,365
25:49.9,366
25:49.9,367
25:49.9,368
25:49.9,368
25:49.9,368
25:49.9,368
25:49.9,367
25:49.9,367
25:49.9,367
25:49.9,365
25:49.9,365
25:49.9,363
25:49.9,362
25:49.9,361
25:49.9,360
25:50.0,359
25:50.0,357
25:50.0,355
25:50.0,355
25:50.0,353
25:50.0,353
25:50.0,352
25:50.0,351
25:50.0,351
25:50.0,350
25:50.0,350
25:50.0,349
25:50.0,349
25:50.0,348
25:50.0,348
25:50.0,348
25:50.0,347
25:50.0,347
25:50.0,346
25:50.0,346
25:50.0,346
25:50.1,346
25:50.1,345
25:50.1,345
25:50.1,345
25:50.1,346
25:50.1,345
25:50.1,345
25:50.1,344
25:50.1,345
25:50.1,344
25:50.1,345
25:50.1,346
25:50.1,346
25:50.1,346
25:50.1,346
25:50.1,346
25:50.1,347
25:50.1,347
25:50.2,348
25:50.2,348
25:50.2,348
25:50.2,348
25:50.2,348
25:50.2,348
25:50.2,348
25:50.2,348
25:50.2,349
25:50.2,348
25:50.2,348
25:50.2,348
25:50.2,348
25:50.2,348
25:50.2,348
25:50.2,348
25:50.2,348
25:50.2,347
25:50.2,347
25:50.3,347
25:50.3,347
25:50.3,347
25:50.3,347
25:50.3,347
25:50.3,347
25:50.3,346
25:50.3,347
25:50.3,346
25:50.3,346
25:50.3,346
25:50.3,346
25:50.3,346
25:50.3,346
25:50.3,346
25:50.3,346
25:50.3,346
25:50.3,346
25:50.3,346
25:50.3,345
25:50.3,345
25:50.4,345
25:50.4,345
25:50.4,346
25:50.4,345
25:50.4,346
25:50.4,346
25:50.4,346
25:50.4,346
25:50.4,347
25:50.4,347
25:50.4,347
25:50.4,347
25:50.4,348
25:50.4,347
25:50.4,348
25:50.4,348
25:50.4,347
25:50.4,347
25:50.5,348
25:50.5,347
25:50.5,348
25:50.5,347
25:50.5,347
25:50.5,348
25:50.5,348
25:50.5,347
25:50.5,348
25:50.5,347
25:50.5,347
25:50.5,347
25:50.5,347
25:50.5,346
25:50.5,347
25:50.5,348
25:50.5,347
25:50.5,347
25:50.5,347
25:50.5,346
25:50.5,347
25:50.6,347
25:50.6,347
25:50.6,347
25:50.6,347
25:50.6,346
25:50.6,346
25:50.6,346
25:50.6,346
25:50.6,346
25:50.6,346
25:50.6,346
25:50.6,346
25:50.6,345
25:50.6,346
25:50.6,346
25:50.6,346
25:50.6,347
25:50.6,347
25:50.7,346
25:50.7,346
25:50.7,347
25:50.7,346
25:50.7,346
25:50.7,347
25:50.7,346
25:50.7,346
25:50.7,346
25:50.7,346
25:50.7,346
25:50.7,346
25:50.7,347
25:50.7,347
25:50.7,347
25:50.7,347
25:50.7,347
25:50.7,347
25:50.8,348
25:50.8,347
25:50.8,347
25:50.8,347
25:50.8,348
25:50.8,347
25:50.8,347
25:50.8,348
25:50.8,347
25:50.8,348
25:50.8,348
25:50.8,348
25:50.8,349
25:50.8,349
25:50.8,350
25:50.8,352
25:50.8,352
25:50.8,354
25:50.8,356
25:50.8,357
25:50.8,359
25:50.8,360
25:50.9,362
25:50.9,364
25:50.9,365
25:50.9,367
25:50.9,368
25:50.9,368
25:50.9,368
25:50.9,369
25:50.9,368
25:50.9,368
25:50.9,368
25:50.9,366
25:50.9,366
25:50.9,365
25:50.9,363
25:50.9,362
25:50.9,361
25:50.9,360
25:51.0,359
25:51.0,357
25:51.0,356
25:51.0,355
25:51.0,353
25:51.0,352
25:51.0,351
25:51.0,351
25:51.0,350
25:51.0,349
25:51.0,348
25:51.0,348
25:51.0,347
25:51.0,347
25:51.0,346
25:51.0,346
25:51.0,346
25:51.0,346
25:51.1,346
25:51.1,346
25:51.1,346
25:51.1,345
25:51.1,345
25:51.1,345
25:51.1,345
25:51.1,346
25:51.1,345
25:51.1,345
25:51.1,346
25:51.1,346
25:51.1,346
25:51.1,346
25:51.1,346
25:51.1,346
25:51.1,347
25:51.1,346
25:51.2,347
25:51.2,347
25:51.2,347
25:51.2,347
25:51.2,347
25:51.2,348
25:51.2,348
25:51.2,349
25:51.2,348
25:51.2,349
25:51.2,349
25:51.2,349
25:51.2,350
25:51.2,350
25:51.2,350
25:51.2,350
25:51.2,350
25:51.2,349
25:51.2,350
25:51.2,349
25:51.2,349
25:51.2,349
25:51.3,349
25:51.3,349
25:51.3,349
25:51.3,348
25:51.3,348
25:51.3,348
25:51.3,348
25:51.3,348
25:51.3,348
25:51.3,347
25:51.3,347
25:51.3,347
25:51.3,347
25:51.3,346
25:51.3,346
25:51.3,346
25:51.3,346
25:51.3,346
25:51.4,346
25:51.4,346
25:51.4,346
25:51.4,346
25:51.4,346
25:51.4,346
25:51.4,346
25:51.4,346
25:51.4,346
25:51.4,347
25:51.4,346
25:51.4,347
25:51.4,347
25:51.4,346
25:51.4,347
25:51.4,346
25:51.4,347
25:51.4,346
25:51.4,347
25:51.4,347
25:51.4,347
25:51.5,347
25:51.5,347
25:51.5,347
25:51.5,347
25:51.5,347
25:51.5,347
25:51.5,347
25:51.5,347
25:51.5,347
25:51.5,348
25:51.5,348
25:51.5,348
25:51.5,347
25:51.5,347
25:51.5,347
25:51.5,347
25:51.5,347
25:51.5,346
25:51.5,346
25:51.6,346
25:51.6,346
25:51.6,346
25:51.6,346
25:51.6,346
25:51.6,345
25:51.6,346
25:51.6,345
25:51.6,346
25:51.6,345
25:51.6,346
25:51.6,346
25:51.6,346
25:51.6,345
25:51.6,346
25:51.6,346
25:51.6,346
25:51.6,346
25:51.7,346
25:51.7,347
25:51.7,347
25:51.7,347
25:51.7,347
25:51.7,347
25:51.7,348
25:51.7,348
25:51.7,348
25:51.7,348
25:51.7,348
25:51.7,349
25:51.7,348
25:51.7,348
25:51.7,349
25:51.7,349
25:51.7,349
25:51.7,349
25:51.7,349
25:51.8,349
25:51.8,348
25:51.8,349
25:51.8,349
25:51.8,349
25:51.8,348
25:51.8,348
25:51.8,347
25:51.8,348
25:51.8,348
25:51.8,347
25:51.8,347
25:51.8,347
25:51.8,348
25:51.8,347
25:51.8,348
25:51.8,348
25:51.8,349
25:51.8,350
25:51.8,352
25:51.9,353
25:51.9,354
25:51.9,356
25:51.9,358
25:51.9,360
25:51.9,362
25:51.9,363
25:51.9,366
25:51.9,367
25:51.9,368
25:51.9,368
25:51.9,369
25:51.9,369
25:51.9,368
25:51.9,369
25:51.9,368
25:51.9,367
25:51.9,366
25:51.9,364
25:52.0,363
25:52.0,362
25:52.0,361
25:52.0,360
25:52.0,358
25:52.0,356
25:52.0,355
25:52.0,354
25:52.0,353
25:52.0,351
25:52.0,350
25:52.0,349
25:52.0,348
25:52.0,346
25:52.0,345
25:52.0,345
25:52.0,345
25:52.0,344
25:52.0,344
25:52.0,343
25:52.1,343
25:52.1,344
25:52.1,343
25:52.1,343
25:52.1,344
25:52.1,344
25:52.1,345
25:52.1,344
25:52.1,345
25:52.1,345
25:52.1,345
25:52.1,346
25:52.1,346
25:52.1,346
25:52.1,347
25:52.1,347
25:52.1,347
25:52.1,348
25:52.1,347
25:52.2,348
25:52.2,347
25:52.2,349
25:52.2,348
25:52.2,349
25:52.2,348
25:52.2,349
25:52.2,349
25:52.2,349
25:52.2,349
25:52.2,350
25:52.2,349
25:52.2,349
25:52.2,349
25:52.2,349
25:52.2,350
25:52.2,349
25:52.2,349
25:52.2,350
25:52.3,349
25:52.3,349
25:52.3,349
25:52.3,349
25:52.3,349
25:52.3,348
25:52.3,349
25:52.3,348
25:52.3,349
25:52.3,348
25:52.3,347
25:52.3,347
25:52.3,347
25:52.3,347
25:52.3,348
25:52.3,347
25:52.3,346
25:52.3,346
25:52.4,346
25:52.4,346
25:52.4,346
25:52.4,346
25:52.4,345
25:52.4,346
25:52.4,345
25:52.4,345
25:52.4,346
25:52.4,345
25:52.4,346
25:52.4,346
25:52.4,347
25:52.4,347
25:52.4,347
25:52.4,346
25:52.4,346
25:52.4,347
25:52.4,347
25:52.4,347
25:52.4,347
25:52.4,347
25:52.5,347
25:52.5,347
25:52.5,347
25:52.5,346
25:52.5,347
25:52.5,347
25:52.5,347
25:52.5,347
25:52.5,346
25:52.5,346
25:52.5,346
25:52.5,346
25:52.5,345
25:52.5,346
25:52.5,346
25:52.5,346
25:52.5,346
25:52.5,346
25:52.6,345
25:52.6,346
25:52.6,346
25:52.6,346
25:52.6,346
25:52.6,346
25:52.6,346
25:52.6,346
25:52.6,346
25:52.6,346
25:52.6,346
25:52.6,346
25:52.6,346
25:52.6,346
25:52.6,346
25:52.6,346
25:52.6,346
25:52.6,346
25:52.7,346
25:52.7,346
25:52.7,346
25:52.7,346
25:52.7,346
25:52.7,346
25:52.7,346
25:52.7,347
25:52.7,347
25:52.7,347
25:52.7,347
25:52.7,347
25:52.7,348
25:52.7,348
25:52.7,348
25:52.7,348
25:52.7,348
25:52.7,348
25:52.7,347
25:52.8,348
25:52.8,348
25:52.8,348
25:52.8,348
25:52.8,348
25:52.8,348
25:52.8,348
25:52.8,348
25:52.8,349
25:52.8,349
25:52.8,348
25:52.8,349
25:52.8,349
25:52.8,349
25:52.8,349
25:52.8,350
25:52.8,351
25:52.8,352
25:52.8,353
25:52.8,354
25:52.9,355
25:52.9,357
25:52.9,358
25:52.9,359
25:52.9,361
25:52.9,362
25:52.9,363
25:52.9,365
25:52.9,365
25:52.9,366
25:52.9,366
25:52.9,367
25:52.9,366
25:52.9,367
25:52.9,366
25:52.9,365
25:52.9,363
25:52.9,362
25:52.9,361
25:53.0,359
25:53.0,358
25:53.0,357
25:53.0,356
25:53.0,354
25:53.0,353
25:53.0,352
25:53.0,350
25:53.0,349
25:53.0,348
25:53.0,347
25:53.0,347
25:53.0,346
25:53.0,346
25:53.0,346
25:53.0,346
25:53.0,345
25:53.0,345
25:53.0,346
25:53.1,346
25:53.1,346
25:53.1,346
25:53.1,346
25:53.1,346
25:53.1,346
25:53.1,346
25:53.1,347
25:53.1,346
25:53.1,347
25:53.1,347
25:53.1,347
25:53.1,346
25:53.1,346
25:53.1,347
25:53.1,347
25:53.1,348
25:53.1,348
25:53.1,348
25:53.1,348
25:53.1,348
25:53.2,349
25:53.2,348
25:53.2,349
25:53.2,349
25:53.2,350
25:53.2,349
25:53.2,349
25:53.2,349
25:53.2,349
25:53.2,349
25:53.2,349
25:53.2,349
25:53.2,348
25:53.2,348
25:53.2,348
25:53.2,348
25:53.2,347
25:53.2,348
25:53.3,347
25:53.3,347
25:53.3,347
25:53.3,348
25:53.3,347
25:53.3,347
25:53.3,347
25:53.3,347
25:53.3,347
25:53.3,347
25:53.3,347
25:53.3,347
25:53.3,347
25:53.3,346
25:53.3,347
25:53.3,346
25:53.3,346
25:53.3,346
25:53.4,347
25:53.4,347
25:53.4,347
25:53.4,348
25:53.4,348
25:53.4,348
25:53.4,348
25:53.4,349
25:53.4,348
25:53.4,348
25:53.4,349
25:53.4,348
25:53.4,349
25:53.4,349
25:53.4,348
25:53.4,349
25:53.4,348
25:53.4,348
25:53.4,348
25:53.4,348
25:53.4,348
25:53.5,349
25:53.5,349
25:53.5,349
25:53.5,348
25:53.5,348
25:53.5,349
25:53.5,348
25:53.5,348
25:53.5,347
25:53.5,348
25:53.5,348
25:53.5,347
25:53.5,348
25:53.5,348
25:53.5,347
25:53.5,347
25:53.5,347
25:53.5,347
25:53.6,347
25:53.6,346
25:53.6,347
25:53.6,347
25:53.6,346
25:53.6,346
25:53.6,347
25:53.6,347
25:53.6,347
25:53.6,347
25:53.6,347
25:53.6,349
25:53.6,348
25:53.6,348
25:53.6,348
25:53.6,348
25:53.6,349
25:53.6,348
25:53.6,349
25:53.7,349
25:53.7,349
25:53.7,348
25:53.7,349
25:53.7,348
25:53.7,348
25:53.7,348
25:53.7,348
25:53.7,348
25:53.7,348
25:53.7,348
25:53.7,348
25:53.7,349
25:53.7,350
25:53.7,351
25:53.7,353
25:53.7,354
25:53.7,356
25:53.7,358
25:53.7,359
25:53.8,360
25:53.8,362
25:53.8,363
25:53.8,364
25:53.8,365
25:53.8,365
25:53.8,365
25:53.8,365
25:53.8,365
25:53.8,364
25:53.8,363
25:53.8,363
25:53.8,362
25:53.8,361
25:53.8,360
25:53.8,359
25:53.8,357
25:53.8,356
25:53.8,355
25:53.9,354
25:53.9,352
25:53.9,351
25:53.9,350
25:53.9,349
25:53.9,349
25:53.9,348
25:53.9,347
25:53.9,347
25:53.9,346
25:53.9,346
25:53.9,347
25:53.9,346
25:53.9,346
25:53.9,347
25:53.9,347
25:53.9,347
25:53.9,347
25:53.9,347
25:53.9,347
25:53.9,346
25:54.0,347
25:54.0,347
25:54.0,347
25:54.0,347
25:54.0,347
25:54.0,347
25:54.0,347
25:54.0,347
25:54.0,347
25:54.0,347
25:54.0,347
25:54.0,348
25:54.0,348
25:54.0,348
25:54.0,348
25:54.0,348
25:54.0,349
25:54.0,349
25:54.1,349
25:54.1,350
25:54.1,351
25:54.1,351
25:54.1,351
25:54.1,351
25:54.1,352
25:54.1,352
25:54.1,352
25:54.1,352
25:54.1,352
25:54.1,352
25:54.1,352
25:54.1,351
25:54.1,352
25:54.1,351
25:54.1,351
25:54.1,351
25:54.2,350
25:54.2,350
25:54.2,350
25:54.2,350
25:54.2,349
25:54.2,349
25:54.2,349
25:54.2,348
25:54.2,348
25:54.2,347
25:54.2,347
25:54.2,346
25:54.2,347
25:54.2,347
25:54.2,346
25:54.2,346
25:54.2,346
25:54.2,345
25:54.2,345
25:54.2,345
25:54.2,345
25:54.3,346
25:54.3,345
25:54.3,344
25:54.3,345
25:54.3,344
25:54.3,344
25:54.3,344
25:54.3,344
25:54.3,344
25:54.3,344
25:54.3,344
25:54.3,344
25:54.3,345
25:54.3,345
25:54.3,346
25:54.3,347
25:54.3,346
25:54.3,347
25:54.4,347
25:54.4,347
25:54.4,348
25:54.4,348
25:54.4,347
25:54.4,347
25:54.4,347
25:54.4,347
25:54.4,347
25:54.4,347
25:54.4,346
25:54.4,346
25:54.4,346
25:54.4,346
25:54.4,347
25:54.4,346
25:54.4,345
25:54.4,346
25:54.4,345
25:54.5,346
25:54.5,345
25:54.5,345
25:54.5,345
25:54.5,346
25:54.5,345
25:54.5,346
25:54.5,346
25:54.5,346
25:54.5,346
25:54.5,346
25:54.5,347
25:54.5,346
25:54.5,347
25:54.5,347
25:54.5,347
25:54.5,348
25:54.5,347
25:54.5,349
25:54.5,349
25:54.5,349
25:54.6,350
25:54.6,350
25:54.6,350
25:54.6,351
25:54.6,352
25:54.6,352
25:54.6,352
25:54.6,353
25:54.6,352
25:54.6,352
25:54.6,353
25:54.6,353
25:54.6,351
25:54.6,352
25:54.6,351
25:54.6,351
25:54.6,351
25:54.6,350
25:54.7,350
25:54.7,351
25:54.7,350
25:54.7,351
25:54.7,350
25:54.7,351
25:54.7,351
25:54.7,351
25:54.7,352
25:54.7,352
25:54.7,352
25:54.7,353
25:54.7,354
25:54.7,355
25:54.7,357
25:54.7,358
25:54.7,359
25:54.7,361
25:54.8,363
25:54.8,363
25:54.8,365
25:54.8,366
25:54.8,367
25:54.8,367
25:54.8,368
25:54.8,368
25:54.8,368
25:54.8,368
25:54.8,368
25:54.8,368
25:54.8,366
25:54.8,366
25:54.8,365
25:54.8,364
25:54.8,362
25:54.8,361
25:54.8,359
25:54.8,357
25:54.8,355
25:54.9,354
25:54.9,353
25:54.9,351
25:54.9,350
25:54.9,349
25:54.9,348
25:54.9,347
25:54.9,346
25:54.9,346
25:54.9,346
25:54.9,345
25:54.9,345
25:54.9,344
25:54.9,345
25:54.9,345
25:54.9,345
25:54.9,344
25:54.9,344
25:55.0,344
25:55.0,345
25:55.0,345
25:55.0,344
25:55.0,345
25:55.0,345
25:55.0,346
25:55.0,346
25:55.0,346
25:55.0,346
25:55.0,346
25:55.0,346
25:55.0,346
25:55.0,347
25:55.0,346
25:55.0,347
25:55.0,347
25:55.0,347
25:55.0,346
25:55.0,347
25:55.0,347
25:55.1,347
25:55.1,348
25:55.1,347
25:55.1,347
25:55.1,346
25:55.1,346
25:55.1,346
25:55.1,346
25:55.1,346
25:55.1,345
25:55.1,346
25:55.1,346
25:55.1,346
25:55.1,345
25:55.1,345
25:55.1,345
25:55.1,345
25:55.1,345
25:55.2,344
25:55.2,344
25:55.2,344
25:55.2,344
25:55.2,344
25:55.2,344
25:55.2,344
25:55.2,343
25:55.2,344
25:55.2,344
25:55.2,344
25:55.2,345
25:55.2,345
25:55.2,346
25:55.2,346
25:55.2,347
25:55.2,348
25:55.2,347
25:55.3,348
25:55.3,349
25:55.3,349
25:55.3,349
25:55.3,350
25:55.3,350
25:55.3,351
25:55.3,352
25:55.3,352
25:55.3,352
25:55.3,352
25:55.3,353
25:55.3,353
25:55.3,353
25:55.3,353
25:55.3,352
25:55.3,351
25:55.3,351
25:55.3,350
25:55.3,350
25:55.3,349
25:55.4,348
25:55.4,347
25:55.4,347
25:55.4,347
25:55.4,347
25:55.4,346
25:55.4,346
25:55.4,346
25:55.4,346
25:55.4,346
25:55.4,346
25:55.4,346
25:55.4,346
25:55.4,347
25:55.4,347
25:55.4,347
25:55.4,348
25:55.4,348
25:55.4,348
25:55.5,349
25:55.5,349
25:55.5,349
25:55.5,349
25:55.5,349
25:55.5,348
25:55.5,348
25:55.5,347
25:55.5,347
25:55.5,346
25:55.5,346
25:55.5,346
25:55.5,346
25:55.5,345
25:55.5,346
25:55.5,346
25:55.5,346
25:55.5,346
25:55.6,346
25:55.6,346
25:55.6,346
25:55.6,346
25:55.6,345
25:55.6,345
25:55.6,345
25:55.6,345
25:55.6,345
25:55.6,345
25:55.6,344
25:55.6,344
25:55.6,344
25:55.6,344
25:55.6,345
25:55.6,345
25:55.6,347
25:55.6,347
25:55.6,347
25:55.6,349
25:55.6,350
25:55.6,352
25:55.7,353
25:55.7,355
25:55.7,356
25:55.7,358
25:55.7,359
25:55.7,360
25:55.7,361
25:55.7,362
25:55.7,363
25:55.7,363
25:55.7,364
25:55.7,364
25:55.7,364
25:55.7,362
25:55.7,362
25:55.7,362
25:55.7,361
25:55.8,360
25:55.8,358
25:55.8,357
25:55.8,357
25:55.8,355
25:55.8,355
25:55.8,354
25:55.8,353
25:55.8,352
25:55.8,352
25:55.8,351
25:55.8,350
25:55.8,349
25:55.8,349
25:55.8,348
25:55.8,347
25:55.8,347
25:55.8,346
25:55.8,346
25:55.9,345
25:55.9,345
25:55.9,345
25:55.9,345
25:55.9,345
25:55.9,345
25:55.9,345
25:55.9,345
25:55.9,345
25:55.9,345
25:55.9,344
25:55.9,345
25:55.9,345
25:55.9,344
25:55.9,344
25:55.9,345
25:55.9,344
25:55.9,344
25:55.9,345
25:55.9,346
25:56.0,346
25:56.0,346
25:56.0,346
25:56.0,346
25:56.0,347
25:56.0,346
25:56.0,347
25:56.0,348
25:56.0,348
25:56.0,348
25:56.0,349
25:56.0,349
25:56.0,350
25:56.0,350
25:56.0,351
25:56.0,352
25:56.0,351
25:56.0,352
25:56.0,352
25:56.1,352
25:56.1,352
25:56.1,352
25:56.1,352
25:56.1,351
25:56.1,352
25:56.1,351
25:56.1,351
25:56.1,351
25:56.1,351
25:56.1,351
25:56.1,351
25:56.1,351
25:56.1,352
25:56.1,351
25:56.1,351
25:56.1,351
25:56.1,350
25:56.2,350
25:56.2,349
25:56.2,349
25:56.2,349
25:56.2,348
25:56.2,348
25:56.2,348
25:56.2,348
25:56.2,348
25:56.2,348
25:56.2,348
25:56.2,349
25:56.2,348
25:56.2,348
25:56.2,348
25:56.2,348
25:56.2,348
25:56.2,349
25:56.2,349
25:56.2,348
25:56.2,349
25:56.3,349
25:56.3,349
25:56.3,349
25:56.3,350
25:56.3,349
25:56.3,349
25:56.3,349
25:56.3,350
25:56.3,349
25:56.3,349
25:56.3,349
25:56.3,349
25:56.3,349
25:56.3,350
25:56.3,350
25:56.3,350
25:56.3,350
25:56.3,351
25:56.4,352
25:56.4,353
25:56.4,354
25:56.4,355
25:56.4,356
25:56.4,357
25:56.4,358
25:56.4,359
25:56.4,360
25:56.4,361
25:56.4,361
25:56.4,362
25:56.4,362
25:56.4,362
25:56.4,362
25:56.4,362
25:56.4,362
25:56.4,361
25:56.4,361
25:56.4,361
25:56.4,359
25:56.5,359
25:56.5,358
25:56.5,357
25:56.5,356
25:56.5,355
25:56.5,355
25:56.5,353
25:56.5,353
25:56.5,352
25:56.5,351
25:56.5,350
25:56.5,350
25:56.5,349
25:56.5,349
25:56.5,348
25:56.5,347
25:56.5,347
25:56.5,347
25:56.6,347
25:56.6,346
25:56.6,346
25:56.6,346
25:56.6,345
25:56.6,346
25:56.6,346
25:56.6,345
25:56.6,345
25:56.6,345
25:56.6,345
25:56.6,345
25:56.6,345
25:56.6,345
25:56.6,345
25:56.6,345
25:56.6,345
25:56.6,345
25:56.7,345
25:56.7,345
25:56.7,344
25:56.7,345
25:56.7,345
25:56.7,345
25:56.7,345
25:56.7,346
25:56.7,346
25:56.7,346
25:56.7,347
25:56.7,347
25:56.7,347
25:56.7,347
25:56.7,348
25:56.7,349
25:56.7,349
25:56.7,349
25:56.7,349
25:56.7,350
25:56.7,350
25:56.8,350
25:56.8,351
25:56.8,351
25:56.8,351
25:56.8,351
25:56.8,351
25:56.8,351
25:56.8,350
25:56.8,350
25:56.8,350
25:56.8,350
25:56.8,349
25:56.8,348
25:56.8,348
25:56.8,348
25:56.8,347
25:56.8,347
25:56.8,346
25:56.9,345
25:56.9,345
25:56.9,345
25:56.9,344
25:56.9,344
25:56.9,344
25:56.9,344
25:56.9,344
25:56.9,345
25:56.9,345
25:56.9,345
25:56.9,345
25:56.9,346
25:56.9,347
25:56.9,347
25:56.9,347
25:56.9,348
25:56.9,347
25:56.9,348
25:56.9,348
25:56.9,348
25:57.0,349
25:57.0,349
25:57.0,349
25:57.0,349
25:57.0,348
25:57.0,348
25:57.0,349
25:57.0,350
25:57.0,349
25:57.0,349
25:57.0,350
25:57.0,352
25:57.0,352
25:57.0,353
25:57.0,355
25:57.0,357
25:57.0,359
25:57.0,360
25:57.1,361
25:57.1,362
25:57.1,363
25:57.1,364
25:57.1,365
25:57.1,365
25:57.1,366
25:57.1,366
25:57.1,364
25:57.1,364
25:57.1,363
25:57.1,362
25:57.1,361
25:57.1,360
25:57.1,358
25:57.1,356
25:57.1,355
25:57.1,353
25:57.2,352
25:57.2,351
25:57.2,350
25:57.2,349
25:57.2,348
25:57.2,347
25:57.2,346
25:57.2,346
25:57.2,345
25:57.2,345
25:57.2,344
25:57.2,344
25:57.2,344
25:57.2,344
25:57.2,344
25:57.2,344
25:57.2,344
25:57.2,344
25:57.2,345
25:57.2,346
25:57.2,345
25:57.2,345
25:57.3,345
25:57.3,345
25:57.3,346
25:57.3,346
25:57.3,346
25:57.3,345
25:57.3,346
25:57.3,346
25:57.3,346
25:57.3,346
25:57.3,346
25:57.3,346
25:57.3,346
25:57.3,346
25:57.3,347
25:57.3,347
25:57.3,347
25:57.3,347
25:57.4,348
25:57.4,348
25:57.4,348
25:57.4,348
25:57.4,348
25:57.4,348
25:57.4,348
25:57.4,348
25:57.4,348
25:57.4,349
25:57.4,348
25:57.4,348
25:57.4,348
25:57.4,348
25:57.4,348
25:57.4,348
25:57.4,348
25:57.4,348
25:57.5,349
25:57.5,349
25:57.5,349
25:57.5,349
25:57.5,350
25:57.5,350
25:57.5,350
25:57.5,350
25:57.5,350
25:57.5,351
25:57.5,351
25:57.5,350
25:57.5,350
25:57.5,351
25:57.5,350
25:57.5,350
25:57.5,350
25:57.5,350
25:57.5,350
25:57.5,350
25:57.5,350
25:57.6,349
25:57.6,349
25:57.6,349
25:57.6,348
25:57.6,348
25:57.6,348
25:57.6,348
25:57.6,347
25:57.6,347
25:57.6,347
25:57.6,347
25:57.6,347
25:57.6,346
25:57.6,346
25:57.6,346
25:57.6,346
25:57.6,345
25:57.6,346
25:57.7,345
25:57.7,345
25:57.7,345
25:57.7,345
25:57.7,346
25:57.7,346
25:57.7,347
25:57.7,348
25:57.7,350
25:57.7,350
25:57.7,352
25:57.7,353
25:57.7,354
25:57.7,356
25:57.7,357
25:57.7,359
25:57.7,360
25:57.7,361
25:57.7,362
25:57.7,362
25:57.7,363
25:57.8,362
25:57.8,362
25:57.8,362
25:57.8,362
25:57.8,361
25:57.8,360
25:57.8,360
25:57.8,359
25:57.8,358
25:57.8,357
25:57.8,356
25:57.8,355
25:57.8,354
25:57.8,353
25:57.8,353
25:57.8,352
25:57.8,351
25:57.8,351
25:57.8,350
25:57.9,349
25:57.9,349
25:57.9,348
25:57.9,348
25:57.9,348
25:57.9,347
25:57.9,346
25:57.9,346
25:57.9,345
25:57.9,345
25:57.9,345
25:57.9,344
25:57.9,344
25:57.9,343
25:57.9,343
25:57.9,343
25:57.9,343
25:58.0,343
25:58.0,343
25:58.0,344
25:58.0,344
25:58.0,344
25:58.0,344
25:58.0,344
25:58.0,345
25:58.0,344
25:58.0,345
25:58.0,345
25:58.0,345
25:58.0,345
25:58.0,346
25:58.0,346
25:58.0,347
25:58.0,347
25:58.0,348
25:58.0,348
25:58.0,348
25:58.0,348
25:58.0,348
25:58.1,349
25:58.1,349
25:58.1,349
25:58.1,349
25:58.1,349
25:58.1,348
25:58.1,348
25:58.1,348
25:58.1,348
25:58.1,347
25:58.1,347
25:58.1,347
25:58.1,347
25:58.1,347
25:58.1,346
25:58.1,345
25:58.1,346
25:58.1,346
25:58.2,345
25:58.2,345
25:58.2,345
25:58.2,345
25:58.2,344
25:58.2,344
25:58.2,344
25:58.2,344
25:58.2,345
25:58.2,345
25:58.2,344
25:58.2,345
25:58.2,345
25:58.2,345
25:58.2,345
25:58.2,346
25:58.2,346
25:58.2,347
25:58.3,347
25:58.3,347
25:58.3,346
25:58.3,347
25:58.3,346
25:58.3,346
25:58.3,346
25:58.3,346
25:58.3,345
25:58.3,345
25:58.3,345
25:58.3,345
25:58.3,345
25:58.3,345
25:58.3,345
25:58.3,345
25:58.3,345
25:58.3,346
25:58.3,346
25:58.3,346
25:58.3,347
25:58.3,347
25:58.4,348
25:58.4,348
25:58.4,348
25:58.4,349
25:58.4,349
25:58.4,349
25:58.4,349
25:58.4,349
25:58.4,349
25:58.4,348
25:58.4,349
25:58.4,349
25:58.4,349
25:58.4,349
25:58.4,348
25:58.4,349
25:58.4,349
25:58.4,348
25:58.5,348
25:58.5,348
25:58.5,348
25:58.5,347
25:58.5,348
25:58.5,348
25:58.5,348
25:58.5,348
25:58.5,348
25:58.5,348
25:58.5,348
25:58.5,348
25:58.5,348
25:58.5,348
25:58.5,348
25:58.5,348
25:58.5,347
25:58.5,347
25:58.6,347
25:58.6,347
25:58.6,347
25:58.6,346
25:58.6,346
25:58.6,346
25:58.6,345
25:58.6,345
25:58.6,344
25:58.6,344
25:58.6,344
25:58.6,344
25:58.6,344
25:58.6,344
25:58.6,343
25:58.6,343
25:58.6,344
25:58.6,345
25:58.6,346
25:58.6,346
25:58.6,347
25:58.7,348
25:58.7,348
25:58.7,349
25:58.7,349
25:58.7,350
25:58.7,350
25:58.7,351
25:58.7,350
25:58.7,350
25:58.7,350
25:58.7,350
25:58.7,349
25:58.7,350
25:58.7,349
25:58.7,349
25:58.7,350
25:58.7,350
25:58.7,349
25:58.7,350
25:58.8,351
25:58.8,352
25:58.8,353
25:58.8,355
25:58.8,356
25:58.8,358
25:58.8,359
25:58.8,361
25:58.8,363
25:58.8,365
25:58.8,367
25:58.8,368
25:58.8,369
25:58.8,370
25:58.8,370
25:58.8,371
25:58.8,371
25:58.8,370
25:58.9,370
25:58.9,369
25:58.9,369
25:58.9,367
25:58.9,365
25:58.9,364
25:58.9,363
25:58.9,360
25:58.9,359
25:58.9,357
25:58.9,355
25:58.9,353
25:58.9,352
25:58.9,351
25:58.9,350
25:58.9,348
25:58.9,347
25:58.9,346
25:58.9,345
25:58.9,345
25:58.9,344
25:59.0,345
25:59.0,344
25:59.0,344
25:59.0,344
25:59.0,345
25:59.0,344
25:59.0,345
25:59.0,345
25:59.0,346
25:59.0,346
25:59.0,346
25:59.0,347
25:59.0,348
25:59.0,348
25:59.0,349
25:59.0,349
25:59.0,349
25:59.0,349
25:59.1,350
25:59.1,350
25:59.1,350
25:59.1,350
25:59.1,351
25:59.1,350
25:59.1,350
25:59.1,350
25:59.1,350
25:59.1,350
25:59.1,349
25:59.1,349
25:59.1,349
25:59.1,349
25:59.1,349
25:59.1,348
25:59.1,348
25:59.1,348
25:59.1,347
25:59.2,347
25:59.2,347
25:59.2,347
25:59.2,347
25:59.2,345
25:59.2,346
25:59.2,345
25:59.2,345
25:59.2,345
25:59.2,345
25:59.2,344
25:59.2,344
25:59.2,344
25:59.2,345
25:59.2,344
25:59.2,344
25:59.2,344
25:59.2,345
25:59.3,346
25:59.3,346
25:59.3,346
25:59.3,347
25:59.3,348
25:59.3,348
25:59.3,348
25:59.3,348
25:59.3,349
25:59.3,349
25:59.3,350
25:59.3,350
25:59.3,351
25:59.3,350
25:59.3,350
25:59.3,350
25:59.3,350
25:59.3,350
25:59.3,350
25:59.4,350
25:59.4,350
25:59.4,350
25:59.4,350
25:59.4,350
25:59.4,350
25:59.4,350
25:59.4,349
25:59.4,349
25:59.4,348
25:59.4,348
25:59.4,348
25:59.4,347
25:59.4,346
25:59.4,345
25:59.4,345
25:59.4,344
25:59.4,344
25:59.4,343
25:59.4,344
25:59.4,344
25:59.5,344
25:59.5,344
25:59.5,343
25:59.5,344
25:59.5,344
25:59.5,344
25:59.5,343
25:59.5,345
25:59.5,344
25:59.5,344
25:59.5,345
25:59.5,345
25:59.5,345
25:59.5,344
25:59.5,344
25:59.5,344
25:59.5,344
25:59.5,343
25:59.6,343
25:59.6,343
25:59.6,343
25:59.6,343
25:59.6,343
25:59.6,343
25:59.6,343
25:59.6,343
25:59.6,344
25:59.6,344
25:59.6,344
25:59.6,344
25:59.6,346
25:59.6,345
25:59.6,346
25:59.6,347
25:59.6,347
25:59.6,347
25:59.6,347
25:59.6,348
25:59.7,347
25:59.7,348
25:59.7,348
25:59.7,349
25:59.7,349
25:59.7,349
25:59.7,349
25:59.7,349
25:59.7,350
25:59.7,350
25:59.7,350
25:59.7,350
25:59.7,350
25:59.7,350
25:59.7,351
25:59.7,351
25:59.7,351
25:59.7,352
25:59.7,352
25:59.8,352
25:59.8,353
25:59.8,354
25:59.8,356
25:59.8,357
25:59.8,359
25:59.8,361
25:59.8,362
25:59.8,363
25:59.8,364
25:59.8,366
25:59.8,367
25:59.8,367
25:59.8,367
25:59.8,367
25:59.8,367
25:59.8,367
25:59.8,365
25:59.8,365
25:59.8,364
25:59.8,363
25:59.9,362
25:59.9,361
25:59.9,359
25:59.9,358
25:59.9,357
25:59.9,356
25:59.9,355
25:59.9,353
25:59.9,352
25:59.9,351
25:59.9,350
25:59.9,349
25:59.9,348
25:59.9,347
25:59.9,347
25:59.9,346
25:59.9,345
25:59.9,345
25:59.9,346
26:00.0,345
26:00.0,344
26:00.0,344
26:00.0,344
26:00.0,344
26:00.0,344
26:00.0,343
26:00.0,343
26:00.0,342
26:00.0,342
26:00.0,342
26:00.0,342
26:00.0,341
26:00.0,341
26:00.0,341
26:00.0,341
26:00.0,342
26:00.0,342
26:00.1,342
26:00.1,342
26:00.1,342
26:00.1,342
26:00.1,342
26:00.1,342
26:00.1,343
26:00.1,343
26:00.1,343
26:00.1,344
26:00.1,344
26:00.1,344
26:00.1,345
26:00.1,345
26:00.1,346
26:00.1,347
26:00.1,347
26:00.1,347
26:00.2,347
26:00.2,347
26:00.2,347
26:00.2,347
26:00.2,347
26:00.2,348
26:00.2,347
26:00.2,347
26:00.2,347
26:00.2,347
26:00.2,347
26:00.2,347
26:00.2,347
26:00.2,347
26:00.2,347
26:00.2,347
26:00.2,347
26:00.2,347
26:00.2,347
26:00.2,346
26:00.2,347
26:00.3,347
26:00.3,347
26:00.3,347
26:00.3,347
26:00.3,347
26:00.3,348
26:00.3,348
26:00.3,348
26:00.3,348
26:00.3,348
26:00.3,348
26:00.3,348
26:00.3,347
26:00.3,347
26:00.3,347
26:00.3,347
26:00.3,347
26:00.3,347
26:00.4,347
26:00.4,347
26:00.4,347
26:00.4,347
26:00.4,348
26:00.4,347
26:00.4,347
26:00.4,347
26:00.4,347
26:00.4,347
26:00.4,347
26:00.4,347
26:00.4,347
26:00.4,347
26:00.4,346
26:00.4,347
26:00.4,347
26:00.4,347
26:00.4,347
26:00.4,346
26:00.4,346
26:00.5,346
26:00.5,346
26:00.5,346
26:00.5,345
26:00.5,346
26:00.5,346
26:00.5,345
26:00.5,346
26:00.5,345
26:00.5,345
26:00.5,346
26:00.5,345
26:00.5,346
26:00.5,345
26:00.5,345
26:00.5,346
26:00.5,346
26:00.5,345
26:00.6,345
26:00.6,346
26:00.6,345
26:00.6,346
26:00.6,345
26:00.6,345
26:00.6,345
26:00.6,345
26:00.6,346
26:00.6,345
26:00.6,345
26:00.6,345
26:00.6,345
26:00.6,345
26:00.6,344
26:00.6,344
26:00.6,344
26:00.6,344
26:00.6,343
26:00.6,343
26:00.6,343
26:00.7,343
26:00.7,344
26:00.7,343
26:00.7,344
26:00.7,344
26:00.7,345
26:00.7,347
26:00.7,348
26:00.7,348
26:00.7,350
26:00.7,351
26:00.7,353
26:00.7,354
26:00.7,355
26:00.7,357
26:00.7,357
26:00.7,359
26:00.7,359
26:00.8,359
26:00.8,360
26:00.8,361
26:00.8,361
26:00.8,360
26:00.8,360
26:00.8,359
26:00.8,358
26:00.8,358
26:00.8,357
26:00.8,356
26:00.8,355
26:00.8,354
26:00.8,353
26:00.8,352
26:00.8,352
26:00.8,350
26:00.8,350
26:00.9,349
26:00.9,349
26:00.9,348
26:00.9,347
26:00.9,347
26:00.9,346
26:00.9,345
26:00.9,345
26:00.9,345
26:00.9,345
26:00.9,344
26:00.9,344
26:00.9,344
26:00.9,344
26:00.9,344
26:00.9,344
26:00.9,343
26:00.9,344
26:00.9,344
26:00.9,343
26:00.9,343
26:01.0,344
26:01.0,343
26:01.0,343
26:01.0,344
26:01.0,344
26:01.0,343
26:01.0,344
26:01.0,345
26:01.0,345
26:01.0,345
26:01.0,346
26:01.0,346
26:01.0,346
26:01.0,346
26:01.0,347
26:01.0,347
26:01.0,347
26:01.0,347
26:01.1,347
26:01.1,347
26:01.1,348
26:01.1,348
26:01.1,347
26:01.1,347
26:01.1,348
26:01.1,348
26:01.1,347
26:01.1,347
26:01.1,347
26:01.1,347
26:01.1,347
26:01.1,347
26:01.1,347
26:01.1,347
26:01.1,347
26:01.1,347
26:01.2,347
26:01.2,347
26:01.2,346
26:01.2,347
26:01.2,347
26:01.2,347
26:01.2,347
26:01.2,347
26:01.2,348
26:01.2,347
26:01.2,347
26:01.2,347
26:01.2,347
26:01.2,347
26:01.2,347
26:01.2,347
26:01.2,346
26:01.2,347
26:01.2,346
26:01.2,345
26:01.2,346
26:01.3,346
26:01.3,346
26:01.3,345
26:01.3,345
26:01.3,345
26:01.3,346
26:01.3,345
26:01.3,346
26:01.3,345
26:01.3,345
26:01.3,345
26:01.3,346
26:01.3,346
26:01.3,346
26:01.3,346
26:01.3,347
26:01.3,347
26:01.3,347
26:01.4,347
26:01.4,346
26:01.4,348
26:01.4,348
26:01.4,347
26:01.4,347
26:01.4,348
26:01.4,347
26:01.4,348
26:01.4,348
26:01.4,348
26:01.4,348
26:01.4,348
26:01.4,348
26:01.4,349
26:01.4,348
26:01.4,348
26:01.4,348
26:01.4,348
26:01.4,349
26:01.4,348
26:01.4,348
26:01.5,348
26:01.5,348
26:01.5,348
26:01.5,348
26:01.5,348
26:01.5,348
26:01.5,348
26:01.5,348
26:01.5,348
26:01.5,348
26:01.5,347
26:01.5,347
26:01.5,347
26:01.5,347
26:01.5,347
26:01.5,346
26:01.5,347
26:01.6,346
26:01.6,346
26:01.6,346
26:01.6,346
26:01.6,346
26:01.6,346
26:01.6,346
26:01.6,346
26:01.6,346
26:01.6,346
26:01.6,346
26:01.6,346
26:01.6,347
26:01.6,347
26:01.6,347
26:01.6,347
26:01.6,348
26:01.6,348
26:01.6,350
26:01.7,350
26:01.7,351
26:01.7,352
26:01.7,352
26:01.7,353
26:01.7,353
26:01.7,354
26:01.7,354
26:01.7,355
26:01.7,356
26:01.7,355
26:01.7,355
26:01.7,355
26:01.7,356
26:01.7,356
26:01.7,356
26:01.7,356
26:01.7,356
26:01.7,354
26:01.7,355
26:01.8,355
26:01.8,354
26:01.8,354
26:01.8,353
26:01.8,353
26:01.8,353
26:01.8,352
26:01.8,352
26:01.8,352
26:01.8,352
26:01.8,351
26:01.8,352
26:01.8,351
26:01.8,350
26:01.8,350
26:01.8,350
26:01.8,350
26:01.8,349
26:01.8,350
26:01.9,349
26:01.9,349
26:01.9,348
26:01.9,348
26:01.9,348
26:01.9,347
26:01.9,347
26:01.9,346
26:01.9,347
26:01.9,346
26:01.9,347
26:01.9,347
26:01.9,347
26:01.9,348
26:01.9,347
26:01.9,348
26:01.9,347
26:01.9,348
26:01.9,348
26:01.9,349
26:01.9,349
26:02.0,348
26:02.0,349
26:02.0,349
26:02.0,349
26:02.0,349
26:02.0,349
26:02.0,349
26:02.0,348
26:02.0,349
26:02.0,349
26:02.0,348
26:02.0,349
26:02.0,349
26:02.0,348
26:02.0,348
26:02.0,348
26:02.0,348
26:02.0,348
26:02.0,347
26:02.1,348
26:02.1,348
26:02.1,347
26:02.1,348
26:02.1,348
26:02.1,348
26:02.1,347
26:02.1,347
26:02.1,348
26:02.1,347
26:02.1,347
26:02.1,347
26:02.1,347
26:02.1,347
26:02.1,347
26:02.1,347
26:02.1,346
26:02.1,346
26:02.2,346
26:02.2,346
26:02.2,345
26:02.2,345
26:02.2,345
26:02.2,345
26:02.2,345
26:02.2,345
26:02.2,345
26:02.2,345
26:02.2,345
26:02.2,345
26:02.2,345
26:02.2,345
26:02.2,346
26:02.2,345
26:02.2,346
26:02.2,345
26:02.3,345
26:02.3,345
26:02.3,345
26:02.3,345
26:02.3,345
26:02.3,346
26:02.3,346
26:02.3,346
26:02.3,346
26:02.3,346
26:02.3,346
26:02.3,346
26:02.3,346
26:02.3,346
26:02.3,346
26:02.3,346
26:02.3,346
26:02.3,347
26:02.3,346
26:02.3,347
26:02.3,346
26:02.3,346
26:02.4,347
26:02.4,347
26:02.4,347
26:02.4,347
26:02.4,348
26:02.4,347
26:02.4,348
26:02.4,348
26:02.4,348
26:02.4,347
26:02.4,347
26:02.4,347
26:02.4,347
26:02.4,347
26:02.4,347
26:02.4,347
26:02.4,347
26:02.5,347
26:02.5,347
26:02.5,347
26:02.5,348
26:02.5,347
26:02.5,348
26:02.5,347
26:02.5,347
26:02.5,347
26:02.5,347
26:02.5,347
26:02.5,347
26:02.5,347
26:02.5,347
26:02.5,348
26:02.5,348
26:02.5,348
26:02.5,349
26:02.5,349
26:02.6,350
26:02.6,349
26:02.6,350
26:02.6,351
26:02.6,351
26:02.6,352
26:02.6,353
26:02.6,353
26:02.6,352
26:02.6,353
26:02.6,353
26:02.6,353
26:02.6,353
26:02.6,353
26:02.6,353
26:02.6,353
26:02.6,353
26:02.6,352
26:02.6,353
26:02.6,352
26:02.6,352
26:02.7,352
26:02.7,351
26:02.7,351
26:02.7,351
26:02.7,350
26:02.7,350
26:02.7,350
26:02.7,350
26:02.7,350
26:02.7,349
26:02.7,349
26:02.7,349
26:02.7,348
26:02.7,348
26:02.7,348
26:02.7,348
26:02.7,347
26:02.7,348
26:02.8,348
26:02.8,347
26:02.8,347
26:02.8,348
26:02.8,347
26:02.8,348
26:02.8,349
26:02.8,348
26:02.8,347
26:02.8,347
26:02.8,347
26:02.8,348
26:02.8,347
26:02.8,347
26:02.8,348
26:02.8,348
26:02.8,348
26:02.8,348
26:02.9,348
26:02.9,348
26:02.9,349
26:02.9,348
26:02.9,349
26:02.9,349
26:02.9,349
26:02.9,348
26:02.9,348
26:02.9,349
26:02.9,348
26:02.9,349
26:02.9,349
26:02.9,349
26:02.9,349
26:02.9,349
26:02.9,349
26:02.9,350
26:02.9,349
26:02.9,350
26:02.9,350
26:03.0,349
26:03.0,350
26:03.0,350
26:03.0,349
26:03.0,350
26:03.0,349
26:03.0,350
26:03.0,350
26:03.0,349
26:03.0,349
26:03.0,349
26:03.0,349
26:03.0,350
26:03.0,349
26:03.0,350
26:03.0,349
26:03.0,349
26:03.0,350
26:03.1,349
26:03.1,349
26:03.1,349
26:03.1,350
26:03.1,349
26:03.1,349
26:03.1,349
26:03.1,349
26:03.1,349
26:03.1,349
26:03.1,349
26:03.1,349
26:03.1,349
26:03.1,349
26:03.1,348
26:03.1,349
26:03.1,348
26:03.1,348
26:03.1,349
26:03.2,349
26:03.2,348
26:03.2,349
26:03.2,348
26:03.2,348
26:03.2,348
26:03.2,348
26:03.2,349
26:03.2,348
26:03.2,348
26:03.2,349
26:03.2,348
26:03.2,348
26:03.2,348
26:03.2,348
26:03.2,348
26:03.2,348
26:03.2,348
26:03.2,348
26:03.2,348
26:03.2,347
26:03.3,348
26:03.3,348
26:03.3,348
26:03.3,348
26:03.3,348
26:03.3,348
26:03.3,347
26:03.3,348
26:03.3,348
26:03.3,348
26:03.3,349
26:03.3,349
26:03.3,349
26:03.3,349
26:03.3,349
26:03.3,349
26:03.3,349
26:03.3,349
26:03.3,349
26:03.4,349
26:03.4,350
26:03.4,349
26:03.4,349
26:03.4,349
26:03.4,349
26:03.4,349
26:03.4,348
26:03.4,349
26:03.4,349
26:03.4,348
26:03.4,348
26:03.4,348
26:03.4,348
26:03.4,348
26:03.4,348
26:03.4,348
26:03.5,348
26:03.5,348
26:03.5,348
26:03.5,348
26:03.5,349
26:03.5,349
26:03.5,349
26:03.5,349
26:03.5,350
26:03.5,350
26:03.5,350
26:03.5,351
26:03.5,351
26:03.5,352
26:03.5,351
26:03.5,352
26:03.5,353
26:03.5,352
26:03.5,352
26:03.5,353
26:03.5,352
26:03.5,353
26:03.6,352
26:03.6,352
26:03.6,352
26:03.6,352
26:03.6,351
26:03.6,352
26:03.6,352
26:03.6,351
26:03.6,351
26:03.6,350
26:03.6,351
26:03.6,350
26:03.6,350
26:03.6,350
26:03.6,349
26:03.6,350
26:03.6,349
26:03.6,348
26:03.7,349
26:03.7,348
26:03.7,348
26:03.7,348
26:03.7,347
26:03.7,348
26:03.7,347
26:03.7,347
26:03.7,347
26:03.7,347
26:03.7,347
26:03.7,347
26:03.7,347
26:03.7,347
26:03.7,347
26:03.7,347
26:03.7,347
26:03.7,348
26:03.7,347
26:03.7,348
26:03.8,348
26:03.8,348
26:03.8,347
26:03.8,348
26:03.8,348
26:03.8,348
26:03.8,348
26:03.8,349
26:03.8,348
26:03.8,348
26:03.8,349
26:03.8,349
26:03.8,349
26:03.8,349
26:03.8,350
26:03.8,350
26:03.8,349
26:03.8,350
26:03.9,350
26:03.9,349
26:03.9,349
26:03.9,349
26:03.9,349
26:03.9,349
26:03.9,350
26:03.9,350
26:03.9,349
26:03.9,349
26:03.9,349
26:03.9,350
26:03.9,350
26:03.9,349
26:03.9,348
26:03.9,349
26:03.9,349
26:03.9,349
26:03.9,348
26:03.9,349
26:03.9,349
26:04.0,348
26:04.0,348
26:04.0,349
26:04.0,348
26:04.0,348
26:04.0,349
26:04.0,349
26:04.0,348
26:04.0,349
26:04.0,348
26:04.0,348
26:04.0,348
26:04.0,348
26:04.0,348
26:04.0,349
26:04.0,348
26:04.0,349
26:04.0,349
26:04.1,349
26:04.1,349
26:04.1,348
26:04.1,349
26:04.1,349
26:04.1,349
26:04.1,349
26:04.1,349
26:04.1,349
26:04.1,349
26:04.1,349
26:04.1,349
26:04.1,349
26:04.1,349
26:04.1,349
26:04.1,349
26:04.1,349
26:04.1,349
26:04.1,350
26:04.2,349
26:04.2,349
26:04.2,349
26:04.2,349
26:04.2,348
26:04.2,349
26:04.2,349
26:04.2,348
26:04.2,349
26:04.2,349
26:04.2,349
26:04.2,348
26:04.2,348
26:04.2,348
26:04.2,349
26:04.2,348
26:04.2,349
26:04.2,349
26:04.2,349
26:04.2,349
26:04.2,350
26:04.3,351
26:04.3,351
26:04.3,352
26:04.3,352
26:04.3,352
26:04.3,353
26:04.3,352
26:04.3,353
26:04.3,354
26:04.3,355
26:04.3,354
26:04.3,354
26:04.3,354
26:04.3,354
26:04.3,354
26:04.3,354
26:04.3,354
26:04.3,353
26:04.3,353
26:04.4,353
26:04.4,353
26:04.4,352
26:04.4,352
26:04.4,352
26:04.4,352
26:04.4,352
26:04.4,351
26:04.4,351
26:04.4,351
26:04.4,351
26:04.4,351
26:04.4,350
26:04.4,350
26:04.4,350
26:04.4,349
26:04.4,350
26:04.4,349
26:04.5,349
26:04.5,349
26:04.5,349
26:04.5,349
26:04.5,349
26:04.5,349
26:04.5,349
26:04.5,349
26:04.5,349
26:04.5,349
26:04.5,348
26:04.5,349
26:04.5,348
26:04.5,348
26:04.5,349
26:04.5,348
26:04.5,348
26:04.5,348
26:04.5,349
26:04.5,348
26:04.6,349
26:04.6,348
26:04.6,349
26:04.6,349
26:04.6,349
26:04.6,349
26:04.6,348
26:04.6,350
26:04.6,350
26:04.6,350
26:04.6,350
26:04.6,350
26:04.6,350
26:04.6,350
26:04.6,350
26:04.6,349
26:04.6,350
26:04.6,350
26:04.7,349
26:04.7,350
26:04.7,350
26:04.7,349
26:04.7,349
26:04.7,350
26:04.7,349
26:04.7,349
26:04.7,349
26:04.7,349
26:04.7,349
26:04.7,349
26:04.7,348
26:04.7,349
26:04.7,349
26:04.7,349
26:04.7,349
26:04.7,349
26:04.8,349
26:04.8,348
26:04.8,349
26:04.8,349
26:04.8,349
26:04.8,348
26:04.8,349
26:04.8,349
26:04.8,350
26:04.8,350
26:04.8,349
26:04.8,350
26:04.8,349
26:04.8,350
26:04.8,350
26:04.8,349
26:04.8,350
26:04.8,350
26:04.8,349
26:04.8,350
26:04.8,350
26:04.8,350
26:04.9,349
26:04.9,350
26:04.9,349
26:04.9,350
26:04.9,350
26:04.9,350
26:04.9,350
26:04.9,350
26:04.9,350
26:04.9,349
26:04.9,349
26:04.9,349
26:04.9,349
26:04.9,349
26:04.9,350
26:04.9,349
26:04.9,349
26:04.9,350
26:05.0,349
26:05.0,349
26:05.0,349
26:05.0,349
26:05.0,349
26:05.0,348
26:05.0,349
26:05.0,349
26:05.0,350
26:05.0,349
26:05.0,350
26:05.0,351
26:05.0,351
26:05.0,351
26:05.0,352
26:05.0,353
26:05.0,353
26:05.0,353
26:05.1,354
26:05.1,355
26:05.1,355
26:05.1,355
26:05.1,356
26:05.1,357
26:05.1,357
26:05.1,357
26:05.1,357
26:05.1,358
26:05.1,358
26:05.1,358
26:05.1,359
26:05.1,357
26:05.1,357
26:05.1,357
26:05.1,357
26:05.1,356
26:05.1,356
26:05.1,355
26:05.1,355
26:05.2,354
26:05.2,354
26:05.2,354
26:05.2,353
26:05.2,352
26:05.2,352
26:05.2,352
26:05.2,352
26:05.2,351
26:05.2,351
26:05.2,350
26:05.2,350
26:05.2,349
26:05.2,349
26:05.2,350
26:05.2,349
26:05.2,349
26:05.2,348
26:05.3,348
26:05.3,348
26:05.3,348
26:05.3,348
26:05.3,348
26:05.3,348
26:05.3,348
26:05.3,347
26:05.3,347
26:05.3,347
26:05.3,347
26:05.3,347
26:05.3,346
26:05.3,347
26:05.3,347
26:05.3,347
26:05.3,348
26:05.3,348
26:05.4,347
26:05.4,348
26:05.4,348
26:05.4,348
26:05.4,349
26:05.4,348
26:05.4,348
26:05.4,348
26:05.4,348
26:05.4,348
26:05.4,349
26:05.4,349
26:05.4,349
26:05.4,348
26:05.4,349
26:05.4,349
26:05.4,349
26:05.4,350
26:05.4,350
26:05.4,349
26:05.4,349
26:05.4,349
26:05.5,349
26:05.5,349
26:05.5,348
26:05.5,348
26:05.5,348
26:05.5,348
26:05.5,347
26:05.5,348
26:05.5,347
26:05.5,348
26:05.5,348
26:05.5,348
26:05.5,347
26:05.5,348
26:05.5,348
26:05.5,347
26:05.5,347
26:05.5,347
26:05.5,347
26:05.6,347
26:05.6,346
26:05.6,347
26:05.6,347
26:05.6,346
26:05.6,347
26:05.6,347
26:05.6,348
26:05.6,348
26:05.6,347
26:05.6,347
26:05.6,347
26:05.6,347
26:05.6,347
26:05.6,347
26:05.6,347
26:05.6,347
26:05.6,347
26:05.7,347
26:05.7,347
26:05.7,347
26:05.7,347
26:05.7,348
26:05.7,348
26:05.7,348
26:05.7,348
26:05.7,348
26:05.7,348
26:05.7,348
26:05.7,348
26:05.7,348
26:05.7,348
26:05.7,348
26:05.7,349
26:05.7,348
26:05.7,348
26:05.7,348
26:05.7,348
26:05.7,348
26:05.7,348
26:05.8,349
26:05.8,349
26:05.8,349
26:05.8,349
26:05.8,348
26:05.8,348
26:05.8,349
26:05.8,349
26:05.8,349
26:05.8,350
26:05.8,351
26:05.8,351
26:05.8,351
26:05.8,353
26:05.8,354
26:05.8,355
26:05.8,355
26:05.8,357
26:05.9,357
26:05.9,359
26:05.9,359
26:05.9,360
26:05.9,361
26:05.9,361
26:05.9,361
26:05.9,362
26:05.9,361
26:05.9,362
26:05.9,362
26:05.9,361
26:05.9,361
26:05.9,360
26:05.9,359
26:05.9,359
26:05.9,358
26:05.9,358
26:06.0,357
26:06.0,357
26:06.0,356
26:06.0,355
26:06.0,354
26:06.0,354
26:06.0,354
26:06.0,353
26:06.0,353
26:06.0,353
26:06.0,352
26:06.0,352
26:06.0,352
26:06.0,351
26:06.0,352
26:06.0,351
26:06.0,350
26:06.0,350
26:06.0,350
26:06.0,349
26:06.0,349
26:06.1,349
26:06.1,349
26:06.1,348
26:06.1,348
26:06.1,348
26:06.1,347
26:06.1,347
26:06.1,348
26:06.1,347
26:06.1,347
26:06.1,348
26:06.1,347
26:06.1,347
26:06.1,348
26:06.1,348
26:06.1,347
26:06.1,348
26:06.1,348
26:06.2,349
26:06.2,348
26:06.2,348
26:06.2,349
26:06.2,349
26:06.2,349
26:06.2,349
26:06.2,349
26:06.2,348
26:06.2,349
26:06.2,348
26:06.2,349
26:06.2,349
26:06.2,348
26:06.2,349
26:06.2,349
26:06.2,349
26:06.2,348
26:06.2,349
26:06.2,349
26:06.3,348
26:06.3,348
26:06.3,349
26:06.3,348
26:06.3,348
26:06.3,348
26:06.3,348
26:06.3,348
26:06.3,348
26:06.3,348
26:06.3,348
26:06.3,347
26:06.3,348
26:06.3,348
26:06.3,348
26:06.3,348
26:06.3,348
26:06.3,347
26:06.4,347
26:06.4,348
26:06.4,348
26:06.4,347
26:06.4,347
26:06.4,347
26:06.4,347
26:06.4,346
26:06.4,347
26:06.4,348
26:06.4,348
26:06.4,348
26:06.4,348
26:06.4,348
26:06.4,348
26:06.4,348
26:06.4,348
26:06.4,348
26:06.5,349
26:06.5,348
26:06.5,348
26:06.5,348
26:06.5,349
26:06.5,348
26:06.5,349
26:06.5,349
26:06.5,348
26:06.5,348
26:06.5,348
26:06.5,349
26:06.5,349
26:06.5,349
26:06.5,348
26:06.5,349
26:06.5,348
26:06.5,348
26:06.5,348
26:06.5,348
26:06.6,348
26:06.6,348
26:06.6,348
26:06.6,348
26:06.6,348
26:06.6,348
26:06.6,348
26:06.6,348
26:06.6,348
26:06.6,348
26:06.6,348
26:06.6,348
26:06.6,347
26:06.6,348
26:06.6,348
26:06.6,348
26:06.6,348
26:06.6,349
26:06.6,348
26:06.6,348
26:06.6,348
26:06.7,348
26:06.7,348
26:06.7,348
26:06.7,347
26:06.7,348
26:06.7,347
26:06.7,348
26:06.7,348
26:06.7,347
26:06.7,348
26:06.7,348
26:06.7,348
26:06.7,348
26:06.7,348
26:06.7,348
26:06.7,349
26:06.7,348
26:06.7,349
26:06.7,350
26:06.8,350
26:06.8,350
26:06.8,351
26:06.8,352
26:06.8,353
26:06.8,354
26:06.8,354
26:06.8,356
26:06.8,357
26:06.8,359
26:06.8,360
26:06.8,360
26:06.8,361
26:06.8,362
26:06.8,362
26:06.8,362
26:06.8,362
26:06.8,362
26:06.9,362
26:06.9,362
26:06.9,361
26:06.9,360
26:06.9,359
26:06.9,360
26:06.9,358
26:06.9,357
26:06.9,356
26:06.9,355
26:06.9,354
26:06.9,353
26:06.9,353
26:06.9,352
26:06.9,351
26:06.9,351
26:06.9,350
26:06.9,350
26:06.9,349
26:06.9,349
26:06.9,349
26:07.0,349
26:07.0,348
26:07.0,347
26:07.0,348
26:07.0,348
26:07.0,347
26:07.0,347
26:07.0,347
26:07.0,347
26:07.0,347
26:07.0,347
26:07.0,347
26:07.0,346
26:07.0,346
26:07.0,346
26:07.0,347
26:07.0,347
26:07.0,347
26:07.1,347
26:07.1,346
26:07.1,347
26:07.1,347
26:07.1,347
26:07.1,348
26:07.1,348
26:07.1,349
26:07.1,349
26:07.1,349
26:07.1,350
26:07.1,350
26:07.1,350
26:07.1,351
26:07.1,351
26:07.1,351
26:07.1,352
26:07.1,352
26:07.1,351
26:07.2,352
26:07.2,352
26:07.2,352
26:07.2,352
26:07.2,352
26:07.2,352
26:07.2,352
26:07.2,352
26:07.2,351
26:07.2,351
26:07.2,351
26:07.2,351
26:07.2,351
26:07.2,351
26:07.2,351
26:07.2,350
26:07.2,349
26:07.2,350
26:07.2,349
26:07.2,349
26:07.3,348
26:07.3,348
26:07.3,348
26:07.3,348
26:07.3,347
26:07.3,347
26:07.3,346
26:07.3,347
26:07.3,346
26:07.3,346
26:07.3,346
26:07.3,346
26:07.3,346
26:07.3,346
26:07.3,345
26:07.3,346
26:07.3,346
26:07.3,346
26:07.3,345
26:07.4,346
26:07.4,346
26:07.4,346
26:07.4,346
26:07.4,346
26:07.4,346
26:07.4,346
26:07.4,346
26:07.4,347
26:07.4,346
26:07.4,346
26:07.4,346
26:07.4,346
26:07.4,346
26:07.4,347
26:07.4,347
26:07.4,347
26:07.4,347
26:07.5,347
26:07.5,346
26:07.5,347
26:07.5,346
26:07.5,347
26:07.5,347
26:07.5,347
26:07.5,347
26:07.5,347
26:07.5,346
26:07.5,347
26:07.5,347
26:07.5,347
26:07.5,347
26:07.5,347
26:07.5,346
26:07.5,347
26:07.5,347
26:07.6,346
26:07.6,347
26:07.6,347
26:07.6,347
26:07.6,347
26:07.6,347
26:07.6,347
26:07.6,347
26:07.6,347
26:07.6,347
26:07.6,347
26:07.6,347
26:07.6,348
26:07.6,347
26:07.6,348
26:07.6,347
26:07.6,348
26:07.6,347
26:07.6,347
26:07.6,347
26:07.6,347
26:07.6,347
26:07.6,347
26:07.7,347
26:07.7,348
26:07.7,348
26:07.7,347
26:07.7,348
26:07.7,347
26:07.7,348
26:07.7,347
26:07.7,347
26:07.7,347
26:07.7,347
26:07.7,347
26:07.7,347
26:07.7,347
26:07.7,347
26:07.7,347
26:07.7,347
26:07.8,348
26:07.8,348
26:07.8,347
26:07.8,348
26:07.8,348
26:07.8,348
26:07.8,348
26:07.8,349
26:07.8,350
26:07.8,351
26:07.8,352
26:07.8,353
26:07.8,354
26:07.8,356
26:07.8,358
26:07.8,359
26:07.8,360
26:07.8,362
26:07.8,363
26:07.9,364
26:07.9,364
26:07.9,366
26:07.9,367
26:07.9,367
26:07.9,368
26:07.9,368
26:07.9,367
26:07.9,367
26:07.9,367
26:07.9,366
26:07.9,366
26:07.9,365
26:07.9,364
26:07.9,364
26:07.9,363
26:07.9,362
26:07.9,360
26:07.9,360
26:07.9,358
26:07.9,357
26:08.0,356
26:08.0,355
26:08.0,354
26:08.0,353
26:08.0,352
26:08.0,351
26:08.0,351
26:08.0,350
26:08.0,350
26:08.0,349
26:08.0,348
26:08.0,348
26:08.0,347
26:08.0,347
26:08.0,346
26:08.0,346
26:08.0,345
26:08.0,345
26:08.1,345
26:08.1,344
26:08.1,344
26:08.1,344
26:08.1,344
26:08.1,345
26:08.1,344
26:08.1,345
26:08.1,345
26:08.1,345
26:08.1,344
26:08.1,345
26:08.1,346
26:08.1,346
26:08.1,346
26:08.1,347
26:08.1,347
26:08.1,347
26:08.1,347
26:08.1,348
26:08.2,349
26:08.2,348
26:08.2,348
26:08.2,349
26:08.2,349
26:08.2,348
26:08.2,348
26:08.2,349
26:08.2,349
26:08.2,349
26:08.2,348
26:08.2,348
26:08.2,348
26:08.2,349
26:08.2,348
26:08.2,348
26:08.2,348
26:08.2,348
26:08.3,347
26:08.3,347
26:08.3,348
26:08.3,347
26:08.3,346
26:08.3,346
26:08.3,346
26:08.3,346
26:08.3,346
26:08.3,346
26:08.3,346
26:08.3,346
26:08.3,346
26:08.3,345
26:08.3,346
26:08.3,345
26:08.3,345
26:08.3,345
26:08.3,345
26:08.4,345
26:08.4,345
26:08.4,345
26:08.4,345
26:08.4,345
26:08.4,345
26:08.4,346
26:08.4,346
26:08.4,346
26:08.4,345
26:08.4,346
26:08.4,346
26:08.4,345
26:08.4,345
26:08.4,345
26:08.4,346
26:08.4,346
26:08.4,345
26:08.4,346
26:08.4,346
26:08.4,346
26:08.5,346
26:08.5,346
26:08.5,346
26:08.5,347
26:08.5,348
26:08.5,348
26:08.5,347
26:08.5,347
26:08.5,347
26:08.5,347
26:08.5,347
26:08.5,347
26:08.5,347
26:08.5,348
26:08.5,347
26:08.5,348
26:08.5,347
26:08.5,347
26:08.6,347
26:08.6,348
26:08.6,348
26:08.6,348
26:08.6,348
26:08.6,348
26:08.6,348
26:08.6,347
26:08.6,348
26:08.6,347
26:08.6,347
26:08.6,348
26:08.6,348
26:08.6,348
26:08.6,348
26:08.6,348
26:08.6,348
26:08.6,348
26:08.6,348
26:08.6,348
26:08.6,348
26:08.7,347
26:08.7,348
26:08.7,348
26:08.7,348
26:08.7,347
26:08.7,348
26:08.7,348
26:08.7,347
26:08.7,348
26:08.7,347
26:08.7,347
26:08.7,348
26:08.7,348
26:08.7,348
26:08.7,348
26:08.7,347
26:08.7,348
26:08.7,347
26:08.8,347
26:08.8,347
26:08.8,347
26:08.8,347
26:08.8,347
26:08.8,347
26:08.8,347
26:08.8,346
26:08.8,347
26:08.8,348
26:08.8,347
26:08.8,348
26:08.8,348
26:08.8,348
26:08.8,350
26:08.8,351
26:08.8,351
26:08.8,353
26:08.9,354
26:08.9,355
26:08.9,357
26:08.9,358
26:08.9,360
26:08.9,361
26:08.9,362
26:08.9,363
26:08.9,364
26:08.9,365
26:08.9,365
26:08.9,365
26:08.9,365
26:08.9,365
26:08.9,364
26:08.9,364
26:08.9,364
26:08.9,363
26:08.9,362
26:09.0,362
26:09.0,360
26:09.0,359
26:09.0,358
26:09.0,358
26:09.0,356
26:09.0,355
26:09.0,354
26:09.0,354
26:09.0,352
26:09.0,352
26:09.0,351
26:09.0,349
26:09.0,349
26:09.0,348
26:09.0,348
26:09.0,348
26:09.0,347
26:09.0,347
26:09.0,346
26:09.0,345
26:09.1,346
26:09.1,345
26:09.1,345
26:09.1,345
26:09.1,345
26:09.1,345
26:09.1,344
26:09.1,345
26:09.1,345
26:09.1,345
26:09.1,345
26:09.1,345
26:09.1,345
26:09.1,346
26:09.1,345
26:09.1,345
26:09.1,346
26:09.1,346
26:09.2,346
26:09.2,346
26:09.2,347
26:09.2,347
26:09.2,347
26:09.2,348
26:09.2,348
26:09.2,348
26:09.2,349
26:09.2,349
26:09.2,349
26:09.2,350
26:09.2,350
26:09.2,349
26:09.2,349
26:09.2,349
26:09.2,349
26:09.2,349
26:09.2,350
26:09.2,349
26:09.2,349
26:09.3,349
26:09.3,349
26:09.3,347
26:09.3,348
26:09.3,348
26:09.3,347
26:09.3,348
26:09.3,348
26:09.3,347
26:09.3,347
26:09.3,347
26:09.3,347
26:09.3,347
26:09.3,346
26:09.3,347
26:09.3,347
26:09.3,347
26:09.3,347
26:09.3,347
26:09.4,347
26:09.4,347
26:09.4,348
26:09.4,348
26:09.4,347
26:09.4,348
26:09.4,347
26:09.4,348
26:09.4,348
26:09.4,347
26:09.4,347
26:09.4,347
26:09.4,347
26:09.4,347
26:09.4,348
26:09.4,347
26:09.4,347
26:09.4,349
26:09.5,347
26:09.5,347
26:09.5,347
26:09.5,347
26:09.5,347
26:09.5,347
26:09.5,347
26:09.5,347
26:09.5,347
26:09.5,347
26:09.5,347
26:09.5,346
26:09.5,347
26:09.5,347
26:09.5,347
26:09.5,346
26:09.5,347
26:09.5,346
26:09.6,347
26:09.6,347
26:09.6,347
26:09.6,346
26:09.6,347
26:09.6,347
26:09.6,347
26:09.6,347
26:09.6,347
26:09.6,348
26:09.6,347
26:09.6,347
26:09.6,348
26:09.6,348
26:09.6,348
26:09.6,348
26:09.6,348
26:09.6,348
26:09.6,349
26:09.6,348
26:09.6,348
26:09.6,348
26:09.7,349
26:09.7,348
26:09.7,348
26:09.7,348
26:09.7,348
26:09.7,348
26:09.7,349
26:09.7,348
26:09.7,348
26:09.7,348
26:09.7,348
26:09.7,348
26:09.7,348
26:09.7,347
26:09.7,348
26:09.7,348
26:09.7,348
26:09.7,348
26:09.8,348
26:09.8,349
26:09.8,350
26:09.8,350
26:09.8,352
26:09.8,353
26:09.8,353
26:09.8,355
26:09.8,357
26:09.8,358
26:09.8,359
26:09.8,361
26:09.8,362
26:09.8,364
26:09.8,365
26:09.8,366
26:09.8,367
26:09.8,368
26:09.8,368
26:09.8,369
26:09.9,369
26:09.9,368
26:09.9,368
26:09.9,368
26:09.9,367
26:09.9,366
26:09.9,365
26:09.9,364
26:09.9,363
26:09.9,361
26:09.9,360
26:09.9,360
26:09.9,358
26:09.9,357
26:09.9,356
26:09.9,355
26:09.9,354
26:09.9,353
26:10.0,352
26:10.0,350
26:10.0,350
26:10.0,350
26:10.0,349
26:10.0,349
26:10.0,348
26:10.0,347
26:10.0,348
26:10.0,347
26:10.0,347
26:10.0,347
26:10.0,346
26:10.0,346
26:10.0,347
26:10.0,346
26:10.0,347
26:10.0,347
26:10.0,347
26:10.1,347
26:10.1,347
26:10.1,347
26:10.1,348
26:10.1,348
26:10.1,348
26:10.1,349
26:10.1,349
26:10.1,349
26:10.1,349
26:10.1,349
26:10.1,349
26:10.1,350
26:10.1,350
26:10.1,350
26:10.1,349
26:10.1,350
26:10.1,349
26:10.1,350
26:10.1,350
26:10.1,348
26:10.2,349
26:10.2,349
26:10.2,349
26:10.2,349
26:10.2,347
26:10.2,347
26:10.2,347
26:10.2,347
26:10.2,347
26:10.2,347
26:10.2,347
26:10.2,347
26:10.2,347
26:10.2,348
26:10.2,347
26:10.2,347
26:10.2,348
26:10.2,348
26:10.3,348
26:10.3,347
26:10.3,348
26:10.3,348
26:10.3,348
26:10.3,348
26:10.3,347
26:10.3,347
26:10.3,347
26:10.3,347
26:10.3,347
26:10.3,347
26:10.3,347
26:10.3,347
26:10.3,347
26:10.3,346
26:10.3,346
26:10.3,346
26:10.4,346
26:10.4,346
26:10.4,345
26:10.4,346
26:10.4,345
26:10.4,345
26:10.4,345
26:10.4,346
26:10.4,345
26:10.4,345
26:10.4,345
26:10.4,345
26:10.4,346
26:10.4,346
26:10.4,346
26:10.4,346
26:10.4,346
26:10.4,345
26:10.4,346
26:10.4,346
26:10.4,346
26:10.5,346
26:10.5,346
26:10.5,346
26:10.5,346
26:10.5,346
26:10.5,346
26:10.5,347
26:10.5,348
26:10.5,347
26:10.5,347
26:10.5,347
26:10.5,347
26:10.5,347
26:10.5,347
26:10.5,347
26:10.5,347
26:10.5,347
26:10.5,347
26:10.6,347
26:10.6,347
26:10.6,348
26:10.6,347
26:10.6,348
26:10.6,348
26:10.6,347
26:10.6,347
26:10.6,348
26:10.6,348
26:10.6,348
26:10.6,350
26:10.6,350
26:10.6,351
26:10.6,352
26:10.6,354
26:10.6,355
26:10.6,356
26:10.6,358
26:10.6,360
26:10.6,361
26:10.7,362
26:10.7,364
26:10.7,365
26:10.7,366
26:10.7,367
26:10.7,367
26:10.7,368
26:10.7,368
26:10.7,368
26:10.7,368
26:10.7,367
26:10.7,366
26:10.7,365
26:10.7,365
26:10.7,363
26:10.7,362
26:10.7,360
26:10.7,359
26:10.8,358
26:10.8,356
26:10.8,355
26:10.8,354
26:10.8,352
26:10.8,351
26:10.8,350
26:10.8,349
26:10.8,348
26:10.8,348
26:10.8,346
26:10.8,347
26:10.8,346
26:10.8,346
26:10.8,346
26:10.8,345
26:10.8,345
26:10.8,344
26:10.8,345
26:10.9,345
26:10.9,346
26:10.9,345
26:10.9,345
26:10.9,345
26:10.9,346
26:10.9,346
26:10.9,346
26:10.9,347
26:10.9,348
26:10.9,347
26:10.9,347
26:10.9,348
26:10.9,348
26:10.9,348
26:10.9,348
26:10.9,348
26:10.9,349
26:10.9,349
26:10.9,349
26:10.9,349
26:11.0,350
26:11.0,349
26:11.0,350
26:11.0,350
26:11.0,349
26:11.0,349
26:11.0,350
26:11.0,349
26:11.0,350
26:11.0,349
26:11.0,350
26:11.0,350
26:11.0,350
26:11.0,350
26:11.0,349
26:11.0,349
26:11.0,350
26:11.1,350
26:11.1,349
26:11.1,349
26:11.1,349
26:11.1,350
26:11.1,349
26:11.1,349
26:11.1,348
26:11.1,349
26:11.1,348
26:11.1,348
26:11.1,348
26:11.1,348
26:11.1,348
26:11.1,348
26:11.1,348
26:11.1,348
26:11.1,348
26:11.1,349
26:11.2,348
26:11.2,348
26:11.2,348
26:11.2,348
26:11.2,348
26:11.2,347
26:11.2,347
26:11.2,347
26:11.2,347
26:11.2,348
26:11.2,347
26:11.2,347
26:11.2,347
26:11.2,348
26:11.2,348
26:11.2,348
26:11.2,347
26:11.2,347
26:11.2,347
26:11.2,347
26:11.2,348
26:11.3,347
26:11.3,347
26:11.3,348
26:11.3,348
26:11.3,349
26:11.3,348
26:11.3,348
26:11.3,348
26:11.3,348
26:11.3,348
26:11.3,348
26:11.3,347
26:11.3,347
26:11.3,347
26:11.3,347
26:11.3,346
26:11.3,346
26:11.3,347
26:11.3,346
26:11.4,346
26:11.4,346
26:11.4,346
26:11.4,346
26:11.4,346
26:11.4,345
26:11.4,346
26:11.4,346
26:11.4,346
26:11.4,346
26:11.4,347
26:11.4,348
26:11.4,349
26:11.4,350
26:11.4,351
26:11.4,352
26:11.4,354
26:11.4,356
26:11.4,358
26:11.4,359
26:11.5,361
26:11.5,362
26:11.5,364
26:11.5,366
26:11.5,366
26:11.5,367
26:11.5,368
26:11.5,368
26:11.5,369
26:11.5,368
26:11.5,368
26:11.5,367
26:11.5,366
26:11.5,366
26:11.5,365
26:11.5,363
26:11.5,363
26:11.5,361
26:11.6,359
26:11.6,358
26:11.6,357
26:11.6,355
26:11.6,354
26:11.6,353
26:11.6,352
26:11.6,351
26:11.6,350
26:11.6,350
26:11.6,349
26:11.6,349
26:11.6,347
26:11.6,347
26:11.6,347
26:11.6,346
26:11.6,346
26:11.6,346
26:11.7,345
26:11.7,345
26:11.7,345
26:11.7,344
26:11.7,344
26:11.7,344
26:11.7,344
26:11.7,345
26:11.7,344
26:11.7,345
26:11.7,345
26:11.7,345
26:11.7,345
26:11.7,345
26:11.7,345
26:11.7,345
26:11.7,345
26:11.7,345
26:11.7,345
26:11.7,346
26:11.7,346
26:11.7,345
26:11.8,345
26:11.8,345
26:11.8,345
26:11.8,345
26:11.8,345
26:11.8,344
26:11.8,344
26:11.8,344
26:11.8,344
26:11.8,344
26:11.8,344
26:11.8,345
26:11.8,344
26:11.8,344
26:11.8,344
26:11.8,344
26:11.8,345
26:11.8,345
26:11.9,346
26:11.9,346
26:11.9,346
26:11.9,346
26:11.9,346
26:11.9,347
26:11.9,347
26:11.9,347
26:11.9,348
26:11.9,349
26:11.9,349
26:11.9,350
26:11.9,350
26:11.9,350
26:11.9,351
26:11.9,351
26:11.9,351
26:12.0,351
26:12.0,350
26:12.0,351
26:12.0,351
26:12.0,351
26:12.0,351
26:12.0,351
26:12.0,350
26:12.0,350
26:12.0,350
26:12.0,349
26:12.0,348
26:12.0,348
26:12.0,349
26:12.0,348
26:12.0,347
26:12.0,347
26:12.0,347
26:12.0,347
26:12.0,347
26:12.0,346
26:12.0,346
26:12.1,346
26:12.1,346
26:12.1,346
26:12.1,346
26:12.1,346
26:12.1,346
26:12.1,345
26:12.1,345
26:12.1,346
26:12.1,345
26:12.1,345
26:12.1,344
26:12.1,345
26:12.1,344
26:12.1,344
26:12.1,344
26:12.1,344
26:12.1,344
26:12.1,343
26:12.2,343
26:12.2,343
26:12.2,343
26:12.2,343
26:12.2,343
26:12.2,343
26:12.2,343
26:12.2,343
26:12.2,343
26:12.2,343
26:12.2,344
26:12.2,343
26:12.2,343
26:12.2,343
26:12.2,343
26:12.2,344
26:12.2,344
26:12.2,344
26:12.3,344
26:12.3,345
26:12.3,345
26:12.3,345
26:12.3,345
26:12.3,346
26:12.3,346
26:12.3,346
26:12.3,347
26:12.3,347
26:12.3,348
26:12.3,347
26:12.3,348
26:12.3,348
26:12.3,348
26:12.3,349
26:12.3,349
26:12.3,349
26:12.3,349
26:12.3,349
26:12.3,350
26:12.4,351
26:12.4,352
26:12.4,353
26:12.4,354
26:12.4,355
26:12.4,356
26:12.4,358
26:12.4,359
26:12.4,361
26:12.4,362
26:12.4,364
26:12.4,364
26:12.4,365
26:12.4,366
26:12.4,366
26:12.4,366
26:12.4,367
26:12.4,366
26:12.5,366
26:12.5,366
26:12.5,365
26:12.5,364
26:12.5,363
26:12.5,362
26:12.5,360
26:12.5,360
26:12.5,358
26:12.5,357
26:12.5,356
26:12.5,355
26:12.5,354
26:12.5,353
26:12.5,352
26:12.5,351
26:12.5,350
26:12.5,350
26:12.6,350
26:12.6,349
26:12.6,349
26:12.6,349
26:12.6,349
26:12.6,348
26:12.6,347
26:12.6,348
26:12.6,347
26:12.6,348
26:12.6,347
26:12.6,347
26:12.6,347
26:12.6,347
26:12.6,347
26:12.6,346
26:12.6,346
26:12.6,345
26:12.6,345
26:12.6,346
26:12.6,346
26:12.7,345
26:12.7,346
26:12.7,346
26:12.7,345
26:12.7,345
26:12.7,346
26:12.7,346
26:12.7,347
26:12.7,347
26:12.7,347
26:12.7,348
26:12.7,347
26:12.7,348
26:12.7,348
26:12.7,349
26:12.7,349
26:12.7,350
26:12.7,350
26:12.8,350
26:12.8,350
26:12.8,350
26:12.8,350
26:12.8,350
26:12.8,350
26:12.8,350
26:12.8,350
26:12.8,350
26:12.8,350
26:12.8,350
26:12.8,349
26:12.8,349
26:12.8,349
26:12.8,349
26:12.8,349
26:12.8,348
26:12.8,348
26:12.8,348
26:12.8,347
26:12.8,347
26:12.9,346
26:12.9,346
26:12.9,346
26:12.9,346
26:12.9,346
26:12.9,346
26:12.9,346
26:12.9,346
26:12.9,346
26:12.9,345
26:12.9,345
26:12.9,345
26:12.9,345
26:12.9,345
26:12.9,345
26:12.9,345
26:12.9,345
26:12.9,345
26:13.0,345
26:13.0,345
26:13.0,345
26:13.0,346
26:13.0,345
26:13.0,346
26:13.0,345
26:13.0,345
26:13.0,345
26:13.0,346
26:13.0,345
26:13.0,346
26:13.0,346
26:13.0,346
26:13.0,346
26:13.0,346
26:13.0,346
26:13.0,346
26:13.0,346
26:13.1,346
26:13.1,347
26:13.1,346
26:13.1,347
26:13.1,347
26:13.1,347
26:13.1,348
26:13.1,348
26:13.1,348
26:13.1,349
26:13.1,349
26:13.1,349
26:13.1,349
26:13.1,349
26:13.1,350
26:13.1,349
26:13.1,350
26:13.1,350
26:13.1,350
26:13.1,350
26:13.1,350
26:13.2,350
26:13.2,349
26:13.2,349
26:13.2,349
26:13.2,349
26:13.2,348
26:13.2,348
26:13.2,348
26:13.2,347
26:13.2,347
26:13.2,348
26:13.2,347
26:13.2,348
26:13.2,348
26:13.2,347
26:13.2,348
26:13.2,348
26:13.2,349
26:13.3,349
26:13.3,351
26:13.3,352
26:13.3,353
26:13.3,356
26:13.3,357
26:13.3,359
26:13.3,361
26:13.3,362
26:13.3,364
26:13.3,365
26:13.3,366
26:13.3,367
26:13.3,367
26:13.3,368
26:13.3,368
26:13.3,367
26:13.3,367
26:13.4,366
26:13.4,366
26:13.4,365
26:13.4,363
26:13.4,363
26:13.4,361
26:13.4,360
26:13.4,358
26:13.4,358
26:13.4,356
26:13.4,355
26:13.4,353
26:13.4,352
26:13.4,351
26:13.4,349
26:13.4,348
26:13.4,348
26:13.4,347
26:13.4,346
26:13.4,345
26:13.4,346
26:13.5,345
26:13.5,345
26:13.5,345
26:13.5,344
26:13.5,344
26:13.5,344
26:13.5,344
26:13.5,345
26:13.5,345
26:13.5,345
26:13.5,345
26:13.5,346
26:13.5,346
26:13.5,346
26:13.5,346
26:13.5,346
26:13.5,347
26:13.5,348
26:13.6,348
26:13.6,347
26:13.6,347
26:13.6,348
26:13.6,347
26:13.6,348
26:13.6,348
26:13.6,348
26:13.6,348
26:13.6,348
26:13.6,348
26:13.6,348
26:13.6,348
26:13.6,349
26:13.6,350
26:13.6,350
26:13.6,349
26:13.6,349
26:13.6,349
26:13.7,349
26:13.7,348
26:13.7,348
26:13.7,348
26:13.7,348
26:13.7,347
26:13.7,348
26:13.7,348
26:13.7,348
26:13.7,347
26:13.7,348
26:13.7,348
26:13.7,348
26:13.7,347
26:13.7,347
26:13.7,347
26:13.7,347
26:13.7,346
26:13.8,347
26:13.8,347
26:13.8,347
26:13.8,347
26:13.8,346
26:13.8,346
26:13.8,346
26:13.8,346
26:13.8,347
26:13.8,347
26:13.8,347
26:13.8,346
26:13.8,347
26:13.8,347
26:13.8,346
26:13.8,346
26:13.8,346
26:13.8,346
26:13.8,346
26:13.8,346
26:13.8,346
26:13.8,346
26:13.9,346
26:13.9,346
26:13.9,346
26:13.9,346
26:13.9,347
26:13.9,346
26:13.9,346
26:13.9,346
26:13.9,346
26:13.9,345
26:13.9,346
26:13.9,347
26:13.9,346
26:13.9,347
26:13.9,346
26:13.9,346
26:13.9,346
26:13.9,346
26:14.0,346
26:14.0,346
26:14.0,347
26:14.0,347
26:14.0,347
26:14.0,347
26:14.0,347
26:14.0,347
26:14.0,347
26:14.0,348
26:14.0,348
26:14.0,348
26:14.0,348
26:14.0,347
26:14.0,347
26:14.0,348
26:14.0,349
26:14.0,348
26:14.0,349
26:14.0,349
26:14.0,348
26:14.1,348
26:14.1,348
26:14.1,348
26:14.1,348
26:14.1,348
26:14.1,348
26:14.1,348
26:14.1,348
26:14.1,348
26:14.1,348
26:14.1,348
26:14.1,348
26:14.1,348
26:14.1,348
26:14.1,349
26:14.1,348
26:14.1,348
26:14.1,348
26:14.2,348
26:14.2,348
26:14.2,348
26:14.2,348
26:14.2,348
26:14.2,350
26:14.2,350
26:14.2,351
26:14.2,352
26:14.2,353
26:14.2,354
26:14.2,355
26:14.2,357
26:14.2,359
26:14.2,361
26:14.2,363
26:14.2,364
26:14.2,366
26:14.3,367
26:14.3,368
26:14.3,370
26:14.3,370
26:14.3,370
26:14.3,369
26:14.3,369
26:14.3,368
26:14.3,368
26:14.3,367
26:14.3,365
26:14.3,363
26:14.3,363
26:14.3,361
26:14.3,360
26:14.3,358
26:14.3,357
26:14.3,354
26:14.3,353
26:14.3,352
26:14.3,350
26:14.3,349
26:14.4,348
26:14.4,346
26:14.4,346
26:14.4,345
26:14.4,345
26:14.4,344
26:14.4,344
26:14.4,344
26:14.4,344
26:14.4,344
26:14.4,344
26:14.4,344
26:14.4,344
26:14.4,344
26:14.4,345
26:14.4,345
26:14.4,344
26:14.4,345
26:14.5,344
26:14.5,344
26:14.5,344
26:14.5,344
26:14.5,345
26:14.5,344
26:14.5,345
26:14.5,344
26:14.5,345
26:14.5,345
26:14.5,345
26:14.5,346
26:14.5,346
26:14.5,346
26:14.5,346
26:14.5,347
26:14.5,347
26:14.5,347
26:14.6,348
26:14.6,347
26:14.6,348
26:14.6,348
26:14.6,348
26:14.6,348
26:14.6,348
26:14.6,348
26:14.6,348
26:14.6,348
26:14.6,348
26:14.6,348
26:14.6,347
26:14.6,347
26:14.6,348
26:14.6,347
26:14.6,347
26:14.6,347
26:14.6,347
26:14.6,346
26:14.6,347
26:14.7,347
26:14.7,347
26:14.7,347
26:14.7,347
26:14.7,346
26:14.7,345
26:14.7,346
26:14.7,346
26:14.7,345
26:14.7,345
26:14.7,345
26:14.7,345
26:14.7,346
26:14.7,345
26:14.7,345
26:14.7,346
26:14.7,346
26:14.7,346
26:14.8,347
26:14.8,346
26:14.8,346
26:14.8,346
26:14.8,346
26:14.8,346
26:14.8,346
26:14.8,347
26:14.8,347
26:14.8,347
26:14.8,347
26:14.8,347
26:14.8,347
26:14.8,347
26:14.8,348
26:14.8,347
26:14.8,348
26:14.8,347
26:14.9,348
26:14.9,347
26:14.9,347
26:14.9,347
26:14.9,347
26:14.9,347
26:14.9,347
26:14.9,347
26:14.9,347
26:14.9,347
26:14.9,346
26:14.9,346
26:14.9,347
26:14.9,347
26:14.9,346
26:14.9,347
26:14.9,347
26:14.9,347
26:14.9,346
26:14.9,346
26:14.9,347
26:14.9,346
26:15.0,347
26:15.0,347
26:15.0,347
26:15.0,347
26:15.0,348
26:15.0,347
26:15.0,349
26:15.0,348
26:15.0,348
26:15.0,348
26:15.0,348
26:15.0,349
26:15.0,349
26:15.0,347
26:15.0,348
26:15.0,348
26:15.0,348
26:15.0,348
26:15.1,347
26:15.1,348
26:15.1,347
26:15.1,347
26:15.1,348
26:15.1,347
26:15.1,346
26:15.1,347
26:15.1,346
26:15.1,346
26:15.1,346
26:15.1,346
26:15.1,347
26:15.1,346
26:15.1,347
26:15.1,346
26:15.1,346
26:15.1,346
26:15.2,346
26:15.2,346
26:15.2,346
26:15.2,346
26:15.2,347
26:15.2,346
26:15.2,347
26:15.2,347
26:15.2,347
26:15.2,347
26:15.2,347
26:15.2,347
26:15.2,348
26:15.2,348
26:15.2,348
26:15.2,350
26:15.2,351
26:15.2,352
26:15.2,353
26:15.2,355
26:15.3,357
26:15.3,359
26:15.3,360
26:15.3,362
26:15.3,363
26:15.3,364
26:15.3,366
26:15.3,367
26:15.3,368
26:15.3,368
26:15.3,369
26:15.3,370
26:15.3,369
26:15.3,369
26:15.3,368
26:15.3,367
26:15.3,366
26:15.3,365
26:15.3,364
26:15.4,362
26:15.4,361
26:15.4,359
26:15.4,358
26:15.4,355
26:15.4,355
26:15.4,353
26:15.4,352
26:15.4,350
26:15.4,351
26:15.4,349
26:15.4,349
26:15.4,348
26:15.4,347
26:15.4,347
26:15.4,346
26:15.4,346
26:15.4,346
26:15.4,346
26:15.4,346
26:15.4,345
26:15.5,345
26:15.5,345
26:15.5,346
26:15.5,346
26:15.5,345
26:15.5,346
26:15.5,346
26:15.5,345
26:15.5,346
26:15.5,346
26:15.5,346
26:15.5,346
